time,twist,height,volume,pressure,epi_mm,trans_mm,endo_mm
0.0,1.3558108293527804,69.02420331269242,71.74357153733338,8.29370364362662,233.27057291666665,243.5270833333333,232.30794270833334
0.1,1.3117471099712004,69.13206054071324,72.43908565506202,8.287354007929524,233.4434895833334,243.53958333333333,232.5389322916667
0.2,1.1653148204367623,69.36493201344673,73.65111142127171,8.239458417997904,233.70703125000003,243.62708333333333,232.9514322916667
0.30000000000000004,0.8809925910792892,69.62315780345028,74.52771824780716,8.136562403586906,233.9861979166667,243.69791666666666,233.1889322916667
0.4,0.47839239274588813,69.85105537584096,74.91046477987635,8.015999765828935,234.24456219059405,243.812644389439,233.46075443481845
0.5,0.05957908710745526,70.02108764992009,74.90694608156673,7.929085854998128,234.50893925330035,243.96980198019807,233.71163366336637
0.6000000000000001,-0.25393852533155653,70.15053767645469,74.82826459309287,7.907772367430764,234.7693043523103,244.19538985148517,233.98082714521453
0.7000000000000001,-0.40006660479553585,70.27728851752147,75.03866102807599,7.934512784862911,235.01401351072607,244.32655734323433,234.1181621287129
0.8,-0.4126011864070748,70.42024962021738,75.7771606738829,7.95149714672623,235.23583333333332,244.48176041666667,234.25342708333335
0.9,-0.39211016178463814,70.56121014804671,76.99555885817294,7.922642539070256,235.44054599834985,244.6342972359736,234.3440919966997
1.0,-0.4362492499643727,70.66102061970987,78.31425637664877,7.869886675587719,235.62320286716172,244.82021452145213,234.40215552805282
1.1,-0.5821386100245359,70.69225621525264,79.19908023464448,7.830599032856395,235.7885448180235,244.90840629201807,234.415625
1.2000000000000002,-0.7973052590895279,70.65945427914806,79.29235331444318,7.828822694884576,235.93876668689322,245.07128843042074,234.3988268608414
1.3,-1.0102375944195374,70.59127465996296,78.6495750341755,7.872840768376194,236.0845410672705,245.20768567303392,234.343166061515
1.4000000000000001,-1.1490735585885548,70.5142198927068,77.67261196413283,7.927528256166404,236.2111625399335,245.2762616320687,234.29757043863833
1.5,-1.1715739598575563,70.43469541723731,76.77765215776242,7.9237507050244025,236.29426309818484,245.2905631188119,234.22526815181516
1.6,-1.0827128302018476,70.3473541917778,76.07030150885409,7.861087644456259,236.30703125,245.0645833333333,234.13020833333334
1.7000000000000002,-0.9306794931307328,70.25673761990286,75.31180560216957,7.984743876355388,236.28348455459772,244.92788864942523,234.0983444683908
1.8,-0.7740970788156902,70.18064261970856,74.20670071462148,8.862017770762101,236.20644791666663,244.38883333333328,233.97456249999996
1.9000000000000001,-0.637138760949029,70.12578132458454,72.72952697988764,11.092917365718987,236.02288472972486,243.73890567685189,233.804028007664
2.0,-0.48930171837088604,70.06462459519065,71.16411436521075,14.785490969436182,235.7257415674603,243.2283134920635,233.65556547619045
2.1,-0.27303982565787277,69.94520906509717,69.83172706472739,19.421706238904136,235.261414500825,241.959984787541,233.28327016295373
2.2,0.04041618021729265,69.727957585735,68.79829658214543,24.35209050929888,234.6966145833333,240.4522135416665,232.8305989583333
2.3000000000000003,0.4155715746731871,69.41375154279031,67.83851805243928,29.27691293368478,234.12212358643944,238.96952968274752,232.37165753110233
2.4000000000000004,0.7660238410808082,69.03942617754082,66.6580647418164,34.168419886293236,233.58968389026396,237.34713412747513,231.8265031971947
2.5,1.0020151271549815,68.65027037615795,65.13857810904662,38.96379286121674,233.06990253712868,236.51959699876235,231.54028336427393
2.6,1.078294289092869,68.27587393980075,63.398039346239095,43.52130819151777,232.5542981641914,235.21758972772273,231.05061365511548
2.7,1.0186734564589062,67.92591265234273,61.683975543368696,47.759857716712986,232.04557291666663,234.40611979166655,230.72825520833325
2.8000000000000003,0.9101288369979507,67.60212490346633,60.243925066404834,51.698219131216575,231.55034808168315,233.0994366233498,230.1231809509076
2.9000000000000004,0.8678256262336334,67.30938843944082,59.24517251649206,55.37598671772707,231.05856796617152,232.71423654084143,229.92381136551148
3.0,0.9802555271944136,67.05218279920678,58.72528666655402,58.78803950465831,230.5804635932343,231.9455613139439,229.48151299504948
3.1,1.2602543712709837,66.82076283586395,58.557527712228854,61.92181522873773,230.10967838541663,231.39235416666665,229.13365624999997
3.2,1.639254244928167,66.58689371718735,58.46070007316295,64.8507854488884,229.65493359375,230.70105208333334,228.66490624999997
3.3000000000000003,2.0215261458846165,66.32284005442442,58.10313621585413,67.74796205738069,229.21994250206262,230.3543574669966,228.38681415016495
3.4000000000000004,2.361662122148162,66.03138926780025,57.28669095463224,70.79291907513083,228.7949837561881,229.8238809818482,227.92123813943888
3.5,2.693026550170488,65.75570359522739,56.078467376521054,74.07877790468932,228.37560978754126,229.51963180693065,227.67809663778874
3.6,3.0747598186129905,65.55086632641286,54.758717371195864,77.58150974753363,227.96067708333325,229.03802083333326,227.35716145833328
3.7,3.5125388033252825,65.43628683426641,53.622322386886275,81.16955586169932,227.55869688531348,228.5636190181517,227.05373736592404
3.8000000000000003,3.939518998319897,65.37065727512885,52.79393163228391,84.6427044899484,227.16041666666663,227.9744791666666,226.73111979166666
3.9000000000000004,4.27658163899856,65.27204761679958,52.171906866833474,87.83546393967804,226.7569732363861,227.45798783003295,226.51080471328382
4.0,4.50624745304869,65.06616551494095,51.52216603342276,90.7419132746249,226.33932291666667,226.7046875,226.27734375
4.1000000000000005,4.687461132128095,64.72787305268396,50.66434722049488,93.51651894307868,225.91601562499991,225.83684509075889,226.07048525165013
4.2,4.9060646234441245,64.29289960153054,49.61115577189336,96.28004579044345,225.48615666254116,224.85184096534627,225.88692502062705
4.3,5.214910159658196,63.83609091221342,48.53567141940719,98.90373717715812,225.04169680748453,223.10530478395063,225.64710648148147
4.4,5.611029917018371,63.42884252118344,47.607557465245726,101.0829305998065,224.57622130594123,222.43161651234536,225.57442129629626
4.5,6.053377051390584,63.101207348274194,46.86459407198176,102.67064930524157,224.09757889851483,220.57150629125408,225.42908673679867
4.6000000000000005,6.49782388233794,62.832883391695276,46.217439567676955,103.82678261557459,223.60338541666658,219.4821614583329,225.35859374999998
4.7,6.9242158695748905,62.57763959533423,45.552104267059946,104.78420473295277,223.0944010416666,217.14492187499982,225.22421875
4.800000000000001,7.339956250278572,62.3032955815554,44.83657902798615,105.58896276066338,222.57772845761124,215.5195174040838,225.13911901815183
4.9,7.764434640839203,62.018751440366714,44.15107154131698,106.15267969010415,222.04758749312427,213.92847886651643,225.06445544995208
5.0,8.213950764313678,61.76560263224764,43.62687616911531,106.4735360954201,221.5055989583333,211.220703125,224.93255208333335
5.1000000000000005,8.69868892441716,61.577103382730456,43.351508729884905,106.69525749410293,220.95069364993188,210.34229357684885,224.8843506492273
5.2,9.22239039886943,61.43859660543031,43.30759914072204,106.965425177768,220.38989192708326,209.13453515624977,224.79881380208334
5.300000000000001,9.771446373862375,61.28758849711057,43.37370034357855,107.35006326741284,219.8185634411096,207.50469551877018,224.6728280218646
5.4,10.302029585650766,61.05573370796841,43.381874697963404,107.8832191165194,219.24371354166658,205.28593229166654,224.45247395833334
5.5,10.750208049901282,60.71561335288205,43.20439970911113,108.57250685917086,218.64184092667082,204.61381230187158,224.3657746755761
5.6000000000000005,11.071505891996466,60.29459702806741,42.82067602712254,109.3577979520105,218.02524245646066,203.15991163224774,224.02068052623278
5.7,11.281061473380815,59.85110225809505,42.32262572976851,110.1527611428021,217.39771726919923,202.88774152369277,223.9327956495098
5.800000000000001,11.455084419179512,59.43681606638983,41.85840934998087,110.92547960098689,216.74903310643558,202.42945931311877,223.6974332198844
5.9,11.685111114022568,59.070525847177294,41.55005697732222,111.71112869084548,216.06657161458324,202.05450520833332,223.29230729166662
6.0,12.018474555073409,58.73525109899293,41.43022037137408,112.55610691191582,215.33427295244158,201.93202834931932,223.01841803320954
6.1000000000000005,12.428432978517188,58.39584579835341,41.43166895195471,113.45924063161647,214.57968749999986,201.9998697916667,222.60442708333326
6.2,12.83267690144185,58.02360942165409,41.432964185622495,114.35097817189431,213.77521717454712,202.12363990914346,222.33390394853953
6.300000000000001,13.146285933349086,57.61166724577754,41.32958952148764,115.11899868087545,212.92416015624994,202.83713541666665,221.7113125
6.4,13.332893826249565,57.17467343289949,41.085531278310576,115.6849679007352,212.00144156614817,203.11867222519825,221.52340936868873
6.5,13.418695562036492,56.73982434543324,40.734835954319486,116.07248210833522,211.02018229166666,204.26276041666665,220.96575520833335
6.6000000000000005,13.462689714692699,56.33818017708726,40.34065156835069,116.35727163143389,209.983862518385,204.98879939284691,220.65105982745013
6.7,13.51110762727425,55.997262306056335,39.95260346914573,116.56657167258557,208.89058333333324,206.06698828125005,220.20569270833332
6.800000000000001,13.571946409327394,55.732213855993656,39.593538450228586,116.67791915870208,207.73939757652207,207.18845950599243,219.7432193920677
6.9,13.620549011431763,55.538345421537294,39.26955859574489,116.6794759868356,206.47065620854357,209.15433294708146,218.97602864836117
7.0,13.620748926271233,55.391880293858144,38.985235564198064,116.57341080498043,205.15169270833334,209.60598958333333,218.6403645833333
7.1000000000000005,13.546155615788964,55.259354800138986,38.75735453777286,116.34773588154997,203.91684163411438,210.76729313151063,218.32892187499996
7.2,13.398155507420434,55.108666522302975,38.61953769511717,115.99191171697932,202.84081171359318,211.83608796153058,217.93777454620462
7.300000000000001,13.215804132851433,54.91922504302292,38.60661451953573,115.52818976269872,201.85418541150975,212.9995551645011,217.46136498298256
7.4,13.063743479838848,54.69463855860537,38.72559392519365,115.00475788619038,200.9825929516422,214.16507090176412,216.95835709397804
7.5,12.993457978082327,54.4713164274292,38.934897996855426,114.48868834766184,200.30438811587592,214.75002566149635,216.69146232512165
7.6000000000000005,13.002689451565601,54.30506429503385,39.14576759539596,114.07612415226282,199.86890624999998,215.54832812500004,216.25920182291665
7.7,13.030789064223887,54.23301587752627,39.25228899445985,113.8488121996922,199.76818322725128,215.92905078125008,216.0365282426089
7.800000000000001,13.000341134226113,54.238534979810616,39.18770079053433,113.81320365923204,199.84364583333334,216.428375,215.6611497395833
7.9,12.87495607517485,54.25273652723763,38.97491359853917,113.91369140856524,199.9670883699414,216.6443464575523,215.45816041896967
8.0,12.687971990057425,54.19744942311098,38.72322616338252,114.07497056653732,199.9982481060606,216.83235216750845,215.19280434553875
8.1,12.517356986200802,54.039065456580545,38.56038509632362,114.20920237771452,199.9984375,216.8738447542671,214.94629048842384
8.200000000000001,12.425643258867806,53.812052126908874,38.54442394749601,114.24617123086726,199.9984375,216.77133333333333,214.66951171874996
8.3,12.415726338712423,53.593722189679,38.61963533598688,114.1865384881947,199.9984375,216.66566883250815,214.51351072607255
8.4,12.438510402814087,53.45064359680263,38.65614758052369,114.09203783493417,199.9984375,216.30130208333333,214.18541666666667
8.5,12.43998683923119,53.39876799484741,38.551996608284455,114.01956424148015,199.9984375,216.2453876235621,214.15331795315456
8.6,12.404455158966686,53.40470934955874,38.31510282626139,113.98613485989331,199.9984375,215.77981770833333,213.92252604166666
8.700000000000001,12.362023081494655,53.420684784573304,38.05182271120938,114.00037244411199,199.9984375,215.69702067863037,213.8868721637789
8.8,12.362780103117364,53.422730916307046,37.87874800719715,114.0680378691526,199.9982509282178,215.54570704414195,213.8149234220297
8.9,12.442748550195722,53.42497865068551,37.84495989012151,114.10199514431002,199.97021967821783,215.42965269183165,213.7683387479373
9.0,12.602563906119945,53.46283313359843,37.92890970612159,113.81489311151974,199.94218749999996,215.39127604166666,213.771484375
9.1,12.806550517933161,53.55992911940546,38.09545991548321,112.73577468584914,199.95493502475247,215.65076449051162,213.91644750412544
9.200000000000001,13.004720985340397,53.70607882616574,38.34697765658729,110.41291133015858,200.02684953799894,215.84820262249767,214.01146107168884
9.3,13.169820285447566,53.866746385354865,38.72468921135441,106.64108869563468,200.0641171676209,216.3702270197201,214.25320451653943
9.4,13.320696601376618,54.01802311349721,39.273180653121926,101.51585796077747,200.17739642970741,216.76376232506377,214.43407283715018
9.5,13.505273642734826,54.174571989974254,40.00257427834046,95.31933576600635,200.49403079044134,217.39599193218973,214.74139065053114
9.600000000000001,13.754981717375962,54.381959914040145,40.86940112482937,88.33468456965169,201.20428076844914,218.22166060493922,215.1690676054508
9.700000000000001,14.052720695785327,54.680777602288856,41.78294145611801,80.73746793575249,202.34871254014197,219.22192426733488,215.69016953625513
9.8,14.340865872861512,55.077953954200346,42.6377708465138,72.65910094762584,203.74046211951168,220.3448004129458,216.28744623313438
9.9,14.5570502598894,55.54863933107814,43.36420878921883,64.3408920545974,205.1652343750003,221.87552083333364,217.1731770833335
10.0,14.66598266937735,56.058905797100316,43.972682859404756,56.20253733805507,206.4172772219349,223.2063196756387,218.00244084718926
10.100000000000001,14.6679284816244,56.584856034453594,44.55954947987903,48.70002148341971,207.59778161210315,224.53776397370584,218.87948938797854
10.200000000000001,14.586969501839585,57.1158751996003,45.25374619754689,42.086915449679374,208.7444852941178,225.24454656862758,219.35290287990202
10.3,14.45016776504339,57.647349302517,46.12253674712298,36.37543619567484,209.84866826526414,226.25912231848193,220.08801051980208
10.4,14.267895896107833,58.17393103396116,47.100385070747656,31.534601659014047,210.89116276041682,227.27475000000013,220.9022604166668
10.5,14.02804227386187,58.68943673932282,48.003346843876635,27.59480672153416,211.8746493399341,228.33691728547865,221.86687551567664
10.600000000000001,13.709208060999517,59.19289563332037,48.624312713104,24.54686354337129,212.80325520833355,229.02656250000027,222.55546875000027
10.700000000000001,13.300017519955206,59.695287738023126,48.83876915371915,22.25985277332967,213.68625979785483,229.92950185643565,223.58216919348186
10.8,12.809238041648948,60.21711979888298,48.65902194028064,20.514302325426513,214.53079133821328,230.46553584834837,224.29879293355853
10.9,12.265370854743098,60.77074941875717,48.22853069579249,19.09444956537364,215.3478465668833,230.87626820570918,225.0183420072652
11.0,11.711631633819096,61.33920143286071,47.771787984833544,17.88897931824412,216.09282226562505,231.06960663377194,225.41203399122807
11.100000000000001,11.19753625092679,61.87638239583516,47.51147344403618,16.902795895940695,216.8278138849042,231.37563732935794,226.19111805711825
11.200000000000001,10.764206093429749,62.337060488374554,47.57768677320766,16.142373118694863,217.52808258364908,231.4466619318182,226.3867779356061
11.3,10.425511020925827,62.711391936272555,47.953834542486696,15.537605054657874,218.2129499155274,231.52767636138614,226.85734356582986
11.4,10.155977285425175,63.0299919119451,48.49192613851701,15.00172539617869,218.86718625992071,231.5432291666667,227.13076264880954
11.5,9.896071035604907,63.33463146138692,48.98863944232695,14.501684148745506,219.49947916666667,231.57135416666665,227.44674479166667
11.600000000000001,9.575441671709068,63.64250003900446,49.28064421519405,14.037231313682915,220.1050276918318,231.61336293316833,227.63971735767328
11.700000000000001,9.14633721257505,63.93452239035738,49.31493616539728,13.58918370426023,220.68323307291666,231.67364583333332,227.86185807291668
11.8,8.614061435066416,64.17465650286523,49.17028192160459,13.121577146553685,221.23886441573856,231.7281332508251,227.99697839315184
11.9,8.045512898353843,64.34273153070151,49.02964087770442,12.61938057194729,221.76033723958344,231.82605338541669,228.13223958333333
12.0,7.541379753600423,64.45422703283846,49.11243779812475,12.100567056898383,222.2431621287129,231.98570931311883,228.27210705445543
12.100000000000001,7.181438302636387,64.55012096714053,49.58042938127352,11.599747476176853,222.69270833333346,232.32070312500005,228.45156250000002
12.200000000000001,6.9785182995846995,64.6639439983039,50.453273825236515,11.144151005068181,223.1082924836602,232.56220639297385,228.5546262254902
12.3,6.877376543681766,64.79391119616082,51.58817314422664,10.73299738153276,223.48547714300102,232.76804899571547,228.63284053657696
12.4,6.800143335263763,64.90477672277548,52.75120198686974,10.344336524034444,223.8366981229373,233.06882606229382,228.74889129537954
12.5,6.698715382894562,64.95754870910504,53.741159030588165,9.97415943106301,224.14296875,233.44153645833333,228.88489583333333
12.600000000000001,6.573649038488377,64.9409161183137,54.47727368656523,9.647721071745794,224.41445312500005,233.97278645833342,229.0682291666667
12.700000000000001,6.455914096541588,64.87957365679097,54.9916837895744,9.387136229776816,224.66179706837875,234.29753202351492,229.1796406765677
12.8,6.37555229401777,64.81773283706586,55.360615952705196,9.191237899605289,224.88763923267325,234.92553759282177,229.39794245049507
12.9,6.341341721828946,64.79579546163986,55.656422453446595,9.03943430319145,225.08521634615386,235.2638020833334,229.5151842948718
13.0,6.340436699989833,64.83694939496537,55.9474508712834,8.884728979200284,225.25731616130363,235.68937964108918,229.6631871390264
13.100000000000001,6.351455928486252,64.94550337215368,56.305597584095004,8.67258824139679,225.42096354166674,236.3606770833335,229.8959635416667
13.200000000000001,6.360400078469467,65.1091789065552,56.799510489740776,8.431595142812759,225.5840244391026,236.83936298076924,230.06271033653846
13.3,6.372150800378722,65.30100782082441,57.487251016192225,8.290028368861194,225.73580272295325,237.12438322368425,230.16003517909357
13.4,6.409126577152005,65.48371369648028,58.39625279407153,8.322321352367913,225.87786458333335,237.5519531250001,230.30742187500002
13.5,6.492333618948379,65.61969239899302,59.47918405929604,8.437708782668134,226.02374453382842,237.98247879280123,230.45545910684822
13.600000000000001,6.616598866775864,65.68416261892516,60.60343021544821,8.488496956195824,226.18675355816833,238.45735483704627,230.61588928424092
13.700000000000001,6.74020019544514,65.67577243912368,61.6265013812175,8.434180115763168,226.35469270833335,238.75104036458336,230.71175520833336
13.8,6.799171764162598,65.6203096535986,62.49534041380849,8.342560728874496,226.53140516927363,239.22754044769508,230.87060410412718
13.9,6.741197582844016,65.56522216043452,63.25871083407707,8.280462745599689,226.71619292996456,239.4425227171986,230.938827016844
14.0,6.558492652606074,65.56380565760277,63.97998040701244,8.26773753256094,226.91110767326737,239.7748826835809,231.04607956889444
14.100000000000001,6.291958541475207,65.65149210729366,64.65036933434062,8.310861792429451,227.12016319444447,239.939111359127,231.09744510582013
14.200000000000001,5.9992580695426865,65.82421372263929,65.18952557578511,8.40416286349318,227.33677812065744,240.15816200657892,231.16629415819872
14.3,5.714933872488499,66.03404220754338,65.50912123166196,8.497263769348267,227.55660194925744,240.3558851588284,231.22384230610564
