time,twist,height,volume,pressure,epi_mm,trans_mm,endo_mm
0.0,0.34685458680442527,69.06513126181146,145.8725731033871,13.1494722467351,235.21744791666666,243.8791666666667,233.45442708333334
0.1,0.3079560005821805,69.06842403867147,145.14221193330582,13.860737115650354,234.81556560672513,243.15979532163752,233.29203901681288
0.2,0.1267587308474324,69.09560240720897,141.11519897386134,17.836036128860005,234.4433229166667,241.68353385416665,232.92684895833335
0.30000000000000004,0.11674001429411947,69.16395695061398,137.1033920249319,22.164739780149308,234.0785552002623,240.3525649762362,232.60102720947495
0.4,0.23236519789791896,69.22548881960563,133.72563732886053,26.55388489038638,233.70623971056565,238.84837900444532,232.21780145632843
0.5,0.3303269219936415,69.24034683312514,130.93606632225269,30.948472137509455,233.33891256313132,237.27938762626263,231.7836884469697
0.6000000000000001,0.26956204848408466,69.19830746887119,128.28543018871852,35.42915076772841,232.97675175719644,236.47053692784107,231.54113626423523
0.7000000000000001,0.0025082732883564274,69.1139366541351,125.46508403692155,39.93369195458715,232.6074421827217,235.83596378058095,231.34529577599383
0.8,-0.39650792492079656,69.00537163828737,122.5692663176791,44.27089056819877,232.234772689769,234.74998633457093,230.99072509282178
0.9,-0.7736981897164529,68.87840338359612,119.87984976415841,48.37011210120301,231.86399288366337,233.5362249896864,230.56433194100654
1.0,-0.9845680724854734,68.72881574865995,117.51096673087223,52.33503711604189,231.50063541666668,232.58867187500007,230.20313020833336
1.1,-0.9766124949328403,68.55504974313543,115.34102494202443,56.222295995554816,231.1456308863525,231.9935338899775,229.96115674848735
1.2000000000000002,-0.8091780400868473,68.36415171903444,113.25379588884967,59.97308844107155,230.79325237211222,231.20618296204626,229.60544425536307
1.3,-0.5987348727676175,68.16639104887045,111.35139648469531,63.58481037803967,230.4455729166667,230.26718750000012,229.18802083333335
1.4000000000000001,-0.42963965869540016,67.96777127263856,109.88769615793046,67.19240815184358,230.1080729166666,229.7088541666665,228.9338541666666
1.5,-0.2918373540716825,67.76658700710355,109.00827735675614,70.93242352072696,229.7760308503507,228.78997700082513,228.49220668316832
1.6,-0.09624529457373686,67.55274091604313,108.5637820032145,74.77099869549149,229.44943750000002,228.3586875,228.28491666666665
1.7000000000000002,0.23848157154073443,67.31191662372669,108.16672302970942,78.49026575476375,229.12341745307344,227.68401918316837,227.97831271916255
1.8,0.7013757378333546,67.03778942368753,107.43196565610528,81.83942629245077,228.78925072194716,226.70158312706266,227.5966210292904
1.9000000000000001,1.1799718569208357,66.74295650295653,106.17961427313777,84.68550282267802,228.45651041666665,226.07864583333324,227.37591145833332
2.0,1.531015522624333,66.45337914718488,104.44255980914909,87.04853326352253,228.12109375,225.42239583333333,227.164453125
2.1,1.6699345417012463,66.18795851674504,102.35372221243558,89.06529051138688,227.77435282590758,224.44940697194716,226.89749767945545
2.2,1.6131101214454933,65.94344253678779,100.09229678788665,90.88504555562129,227.40603341584156,223.6381136551155,226.71998117780527
2.3000000000000003,1.459372346772198,65.6997838607549,97.91271387437716,92.56072270061208,227.02679584364682,222.5437035891089,226.52430383663366
2.4000000000000004,1.3415047605754629,65.4402355391991,96.1193530055789,94.05601721736814,226.63059895833328,221.49947916666636,226.37109374999997
2.5,1.3752525352308373,65.16786598551128,94.91765094313526,95.30651215061603,226.21432291666667,219.4884114583333,226.14401041666667
2.6,1.6185257174899652,64.90455485612665,94.24525160811952,96.30502822007982,225.77141685267858,218.99569122023806,226.10016071428572
2.7,2.0574568988349053,64.67330304697542,93.74201076373959,97.17110652901569,225.30669803269393,217.80384035942674,226.0140366130363
2.8000000000000003,2.632956768468732,64.47826921786373,92.92619413928385,98.03305436081799,224.81757421875002,216.4300221354168,225.93336458333332
2.9000000000000004,3.2903565949879794,64.29776864356215,91.48688027874095,98.87134937467556,224.31377372112206,215.0597914088282,225.86566883250825
3.0,4.008982743015989,64.09470549151348,89.48674044685453,99.55531173655918,223.79219921875006,213.72168489583353,225.79784375
3.1,4.786183822341233,63.83851228337523,87.31636125793858,100.00385895697168,223.2477450284091,211.93170691287887,225.73044981060605
3.2,5.5979083245889925,63.52598410458415,85.44336323398532,100.28715167140602,222.68780969893865,210.99173014176418,225.69713054117915
3.3000000000000003,6.385549118883915,63.18554787340056,84.15965885217598,100.57206118294897,222.11527297794112,209.76109137561264,225.6456399101307
3.4000000000000004,7.088437650248868,62.85928334401759,83.49389037721112,100.9911298038936,221.53368551009518,208.6464455855053,225.57732089845015
3.5,7.684744110498781,62.576852876818684,83.29697426607972,101.55443035916149,220.94043754489948,207.27986260775864,225.47315014367814
3.6,8.199438634747253,62.34276205047263,83.39334230403281,102.18244805486023,220.33552634796078,206.633647362581,225.4155056831114
3.7,8.683706666697132,62.142884776122315,83.68660547696912,102.82778769420406,219.7151157693894,205.4243438015677,225.21934044966997
3.8000000000000003,9.189085415280672,61.9577528980112,84.15800165287818,103.51874913519919,219.08743697420275,205.11654259102897,225.12606525766478
3.9000000000000004,9.742557446094414,61.76988738107095,84.76960369844376,104.25188078916794,218.44629363606,204.82030697489392,225.0148681218568
4.0,10.325842985329109,61.56399234855391,85.38119773826095,104.94574864787204,217.79631935849832,204.4667620668317,224.74080548679868
4.1000000000000005,10.876139573216527,61.324684772994466,85.7922806950437,105.57046699647026,217.12017057291666,204.40028125000003,224.56025520833336
4.2,11.320425271353622,61.03588223864522,85.87359831762511,106.20049714344447,216.41241878094056,204.4113062087459,224.3830767842409
4.3,11.627390032602898,60.685855702580604,85.65590637199342,106.91212767248908,215.68130543523102,204.6017352516502,224.1080561571782
4.4,11.83995732726128,60.27848594800429,85.30705446748141,107.69121168245192,214.92639490511547,205.0712497421617,223.69907307136964
4.5,12.057631034604595,59.8412535941566,85.00681818355825,108.4635321901754,214.13025603341578,205.45856925536305,223.4226085499175
4.6000000000000005,12.372640335560538,59.41621770258914,84.7915883861544,109.15336858275901,213.27212890625012,205.90173437499996,223.12227473958333
4.7,12.806485006499214,59.034224345554094,84.50908872591098,109.68370001101634,212.3725598958334,206.53873697916663,222.73446875000002
4.800000000000001,13.300184275412702,58.6926509268804,83.96136067853841,110.01678046393569,211.41859400783815,207.36484503919147,222.26620513613855
4.9,13.76435446493125,58.35793863537072,83.11487781889065,110.22204710896189,210.42643229166652,208.2243489583334,221.77734374999991
5.0,14.141352513019113,57.992475598511554,82.16068033874411,110.4025815572815,209.38741666666684,208.8024869791665,221.44094791666672
5.1000000000000005,14.426242377578815,57.58436397350399,81.36844213792182,110.57890841041673,208.2798783003299,209.59015960189777,220.97999174917484
5.2,14.635067124252751,57.15789839570772,80.88077004847801,110.70191160749555,207.13541666666652,210.5958333333334,220.37695312499997
5.300000000000001,14.759031694092442,56.758878229875386,80.6092704858728,110.72389532547247,205.97810937500012,211.17647265624996,220.02118229166672
5.4,14.756521699501995,56.4265165129169,80.3002533982919,110.64960763407605,204.83695209364677,211.89187035891098,219.54025758044546
5.5,14.59218526106604,56.17138782265311,79.72262821180227,110.54667513439006,203.57686803836646,212.71390392945543,218.93680125825085
5.6000000000000005,14.283122886455077,55.97342623473909,78.84861918771743,110.48651727338004,202.36672564717412,213.19485060849834,218.56703774752472
5.7,13.909378392641495,55.799284847918976,77.8969246697199,110.47915654943581,201.30379427083332,213.76980598958335,218.0812708333333
5.800000000000001,13.576541096816522,55.624640893844195,77.16873237862606,110.49309052535718,200.57144054249179,214.46153955239274,217.44293909859735
5.9,13.357541253398404,55.44509157861899,76.777520690285,110.50984898120645,200.207421875,214.7852864583334,217.08867187499993
6.0,13.25972135465789,55.26982624410792,76.54110092919444,110.5192073905203,200.07606081495098,215.1135391135621,216.7025186376634
6.1000000000000005,13.236586113567911,55.10509023243386,76.18143391691069,110.48093684323247,200.04209022671571,215.5283567197712,216.1909136540033
6.2,13.223508155877731,54.94175711192995,75.63606692996882,110.34451664717056,199.97958436468647,215.73693275577557,215.94125154702968
6.300000000000001,13.17021744510719,54.760678453002186,75.14387703297841,110.10202930675545,199.94847916666671,215.99790625,215.57988411458334
6.4,13.057502459211017,54.55555969454505,75.013846919159,109.76528486895353,199.9610303217822,216.2281378919142,215.2473378197195
6.5,12.893039857953326,54.35162217688613,75.32116657477569,109.26371864024675,199.98912438118813,216.46648360148512,214.9587007528878
6.6000000000000005,12.69602564399158,54.196343559478755,75.81963362345971,108.44410691246081,199.99840625000002,216.8592395833333,214.64752083333335
6.7,12.494767350978078,54.126014949779545,76.13548318763429,107.19151195535575,199.98901093234323,217.0636912128713,214.52137995049506
6.800000000000001,12.338031049514752,54.1362114574925,76.07655957258672,105.47754867576317,199.97344781353135,217.35211814150168,214.39350247524752
6.9,12.289873970213568,54.17780278073935,75.79804999628772,103.28637011129484,199.97738498245835,217.71488091988041,214.32362726031008
7.0,12.392371585756287,54.17917565206977,75.67765233483091,100.54250110238225,200.0109581270627,218.17621055074252,214.32128712871284
7.1000000000000005,12.624348418496604,54.084415931099244,76.0202554587931,97.14322651139572,200.01415532178217,218.671579775165,214.38796410891086
7.2,12.90320207296451,53.891922456691844,76.85774082131576,93.08719168703486,200.04266536458337,219.24885937500002,214.52779166666667
7.300000000000001,13.141249019295984,53.66958609456524,77.9802020163748,88.52491156856013,200.1889977244508,219.92950279173138,214.75942651710025
7.4,13.309134487300303,53.52666873385561,79.12729421588922,83.66429700107375,200.551607937678,220.62397931429174,215.05845327869187
7.5,13.451788686627168,53.55245910316671,80.17289263533725,78.64342477522852,201.1645162953795,221.39510622937294,215.4457714521452
7.6000000000000005,13.654925901397336,53.763677156479524,81.16151700450756,73.4805492200348,201.9499793729373,222.1952299917492,215.88910762169965
7.7,13.994391342661912,54.09857749653179,82.18114271092448,68.16318795141387,202.7616130363036,223.0509024339934,216.41341403671618
7.800000000000001,14.49178483330377,54.458542974224294,83.20221592801721,62.76541472593678,203.4707903645833,223.99793749999995,217.07745833333334
7.9,15.095712417201439,54.76601157061487,84.04388737089464,57.45425398874971,204.15676180899345,224.73592718646867,217.60823535478553
8.0,15.708576700795442,55.00218282395127,84.5201353021388,52.40105700119855,204.82445725041256,225.78562809405938,218.45636344884488
8.1,16.245713402207354,55.20379859643399,84.6435172489809,47.68575496788989,205.50377604166658,226.89427083333317,219.4384114583332
8.200000000000001,16.67443928681978,55.426144411086916,84.67184441142399,43.27707720861753,206.19213002064566,227.38887481231234,219.91770012199706
8.3,16.99896863566792,55.70279928139567,84.93117612126314,39.122165293108075,206.89419544141916,227.9461691419142,220.4955237855817
8.4,17.219933356978537,56.03093706236822,85.588353151693,35.26794129176914,207.58783003300337,228.7768512788779,221.47863294141916
8.5,17.32380382896117,56.386992363542056,86.5788490379714,31.86204492934273,208.31354166666665,229.34947916666667,222.18671874999998
8.6,17.31017664094513,56.75476130126227,87.72265064606636,29.008682137609284,209.0802934199671,229.71683683993402,222.69330136138623
8.700000000000001,17.2070564330915,57.14173239394274,88.88817011413606,26.64447665430774,209.87502965140266,230.1329053217822,223.36948354991753
8.8,17.040438052623617,57.57065971839288,90.05328228663718,24.620104701539603,210.70455729166656,230.5526041666666,224.20169270833324
8.9,16.792482924925647,58.05478118365786,91.24752583229993,22.819906130443318,211.554075134076,230.77064253300333,224.70106616130366
9.0,16.409174610739885,58.579497043572196,92.45328513293146,21.175818159353224,212.4208276721015,230.9775588768116,225.2409929800725
9.1,15.86122226132091,59.106764248287526,93.52755620733895,19.687282357321926,213.31992187499986,231.1192708333333,225.79505208333322
9.200000000000001,15.187367803767495,59.59823711814139,94.2009937332824,18.414451760773044,214.2441496493399,231.17473700495052,226.14745255775577
9.3,14.465961193225823,60.0388044569443,94.23373886327943,17.378879098467664,215.16757812499995,231.21406250000004,226.5227864583333
9.4,13.750856989172306,60.44283791178719,93.68391488949631,16.520526824873016,216.04713541666675,231.24531250000004,226.87695312500009
9.5,13.043006059709066,60.83935470184874,93.00551878564163,15.772949894129573,216.9466223184818,231.2389284240924,227.30027201938944
9.600000000000001,12.317705575574761,61.25057268439423,92.76009944397669,15.112303816553185,217.80020380434777,231.22552083333335,227.450096240942
9.700000000000001,11.569391007068226,61.68289555499272,93.16173350541027,14.524538516860781,218.6316080729167,231.20888541666667,227.7589427083333
9.8,10.82782927198807,62.1327090504489,93.89300988799694,13.981019572454954,219.4000541460396,231.2153207508251,227.874083384901
9.9,10.139681378614137,62.592428042548754,94.38251484294335,13.453165224745506,220.11263020833346,231.24531250000004,228.05989583333337
10.0,9.541982309587683,63.046772993685785,94.31053843255069,12.924302205805118,220.77990624999995,231.28720833333333,228.19365625
10.100000000000001,9.042955190554844,63.46686178144083,93.86582195430499,12.38516013118165,221.3894737520628,231.34976794554458,228.30618296204622
10.200000000000001,8.61534266266961,63.8173137696385,93.52648469007994,11.83315423391025,221.92539062500006,231.48281250000002,228.4557291666667
10.3,8.216249237802229,64.07938606322882,93.64962153817773,11.284693783290196,222.39374999999995,231.72656249999997,228.62760416666663
10.4,7.82947770384791,64.27163808379915,94.26568181143544,10.776229702087731,222.78690476190482,231.78943452380955,228.6616443452381
10.5,7.487220969951889,64.44230836378567,95.14731420249628,10.331751636303956,223.13177856848185,232.0404625618812,228.79631291254123
10.600000000000001,7.23713976567061,64.63082123435568,95.98736690356559,9.927803285607224,223.43586045792077,232.25596488242573,228.90666223184817
10.700000000000001,7.0872312122470476,64.83137569403088,96.57945759547624,9.540664849253487,223.67903125,232.600890625,229.07182291666666
10.8,6.995252622594013,64.99577474084944,96.97331263889798,9.197041201406561,223.87078128819826,232.8730874606558,229.1954885939983
10.9,6.915045369133661,65.07365601062855,97.49810073694813,8.931019153557274,224.0351140202703,233.24058863551056,229.36202608858864
11.0,6.839552609975594,65.05096378321129,98.53637254605553,8.718180195114195,224.18199398847378,233.47070422904525,229.4698637056174
11.100000000000001,6.787706399655522,64.95487025204294,100.15007907749687,8.50668953599772,224.30260283905227,233.81690553513076,229.63303952205885
11.200000000000001,6.760286501544134,64.83072041327564,101.90412636771542,8.28091622249325,224.40018243322493,234.28870832625535,229.8564921404824
11.3,6.731432842352528,64.71927299317481,103.16085223549521,8.052802750994896,224.4960572916667,234.56778645833333,229.98509895833334
11.4,6.6894122293171945,64.65225132769974,103.63331980986685,7.831472575449422,224.60267868193068,234.94051151247936,230.16205945750826
11.5,6.6680756901551375,64.65854729543561,103.62877073598476,7.606309912655743,224.71168780940593,235.5117806311881,230.43711453176567
11.600000000000001,6.717028352422875,64.76057154951134,103.75580375143134,7.364969060301585,224.82167646806317,235.71750228937728,230.5344279418498
11.700000000000001,6.836659448444976,64.9540557430589,104.44107976853412,7.1344462949788605,224.94580754950496,236.14908467409245,230.7311739377063
11.8,6.954454602911486,65.19089419274319,105.66468886120852,6.96252791566274,225.09588895631066,236.6493401092233,230.9428777305825
11.9,6.974122505904172,65.39177071012699,107.02247357413408,6.858933200854906,225.26915958737868,236.98647603155345,231.07778620550164
12.0,6.850906320851195,65.48962329227639,108.0054198792299,6.812976282372484,225.4586599576271,237.25236140536722,231.1794712217514
12.100000000000001,6.6302786707336026,65.47181770854381,108.33350401487907,6.838985066132081,225.66471354166663,237.73528645833326,231.33828125
12.200000000000001,6.42240131831084,65.38503832583275,108.17401041235775,6.923145138425404,225.88990047442243,238.00873685024752,231.41387943481848
12.3,6.323546742760236,65.29767508929332,108.09590165621961,6.985762491016659,226.13307291666663,238.56093749999994,231.53307291666667
12.4,6.335712300146825,65.25011744927578,108.7657407252377,6.961717934583555,226.3970716512757,239.04534344059402,231.6145228405052
12.5,6.357350154651921,65.23230861943252,110.5772207006982,6.860202360335184,226.6697730654762,239.2990513392857,231.6423363095238
12.600000000000001,6.267599099189668,65.20424119489127,113.42365656668345,6.7446456087389635,226.94364686468643,239.59728367367984,231.66643719059405
12.700000000000001,6.030602808261919,65.13962940099607,116.72361279963796,6.6689056933377975,227.2260416666667,240.00221354166672,231.67578125
12.8,5.72421866855547,65.05457452839747,119.70683632433345,6.627796043801623,227.51619353341584,240.39018667491754,231.6693146658416
12.9,5.473987158406861,64.99671214888981,121.84777281298837,6.580321039248826,227.80377604166674,240.95182291666666,231.62682291666667
13.0,5.352376589649901,65.00550073431445,123.18708355103148,6.525399792374181,228.08249289772724,241.1732165009469,231.60439678030306
13.100000000000001,5.322535486103661,65.07977939110191,124.23154115916732,6.505429838501516,228.35620930154914,241.66181907719013,231.5222946937322
13.200000000000001,5.270494246564174,65.18013100740076,125.44942365465079,6.527581111656043,228.6236686566493,241.96088862840608,231.46316247866773
13.3,5.100746029096066,65.26033394803379,126.85783571863585,6.544957559131343,228.87959081064358,242.29560514645212,231.38584725660064
13.4,4.813106457025139,65.2977336547325,128.11665999438608,6.530257733702776,229.1189923679868,242.54695492986798,231.3252346328383
13.5,4.49694232218043,65.29804087606549,128.9723898755026,6.502299892545182,229.3473958333333,242.91458333333335,231.21432291666667
13.600000000000001,4.25776875957037,65.27684293060155,129.5517137229781,6.47108439261542,229.56015624999995,243.09444444444443,231.15608878968257
13.700000000000001,4.14107570903856,65.24135437592327,130.21456769731893,6.440938818845896,229.76015104166666,243.32781250000002,231.07760546875
13.8,4.105973519360627,65.19220742897765,131.17847861248518,6.449995973408178,229.94586943069308,243.5362933168317,231.00643048679868
13.9,4.0596548401343355,65.14163833046696,132.33779332130783,6.5199455706736975,230.10544921875,243.7004791666667,230.94824479166664
14.0,3.925907720328178,65.12570064865726,133.40948411185647,6.592223067318002,230.25703125000004,243.84166666666667,230.894921875
14.100000000000001,3.7026459314951605,65.19205305779688,134.1795302233701,6.609433277650726,230.39765624999998,244.00729166666665,230.841796875
14.200000000000001,3.4671874502915467,65.36699532174362,134.60244252396234,6.610976690933231,230.5263553338002,244.0926492471989,230.82091247957518
14.3,3.318756092562555,65.62679952951571,134.73340441953863,6.642082411754092,230.64205984477124,244.15597426470586,230.8105979370915
