time,twist,height,volume,pressure,epi_mm,trans_mm,endo_mm
0.0,-8.326853938529213,73.55141343439374,145.0817378011236,9.036438084083427,240.4787760416667,247.50520833333334,233.625
0.1,-8.338677310943877,73.55667489671642,145.0190964591998,9.031313359492078,240.55585937499998,247.540625,233.68541666666667
0.2,-8.407752188368331,73.58767335131057,144.65832025071416,9.00968646094902,240.66281971947194,247.6022999174917,233.76164397689772
0.30000000000000004,-8.417983547268546,73.59106040350075,144.6313188322625,9.060252442867695,240.76008663366338,247.6654084158416,233.81543935643563
0.4,-8.351287512319605,73.54283938377608,144.92605647585523,9.142595345940991,240.85686881188118,247.75577557755773,233.86261344884488
0.5,-8.222759021507116,73.46135497867948,145.18703534372477,9.225116115474918,240.94920833333333,247.84507291666668,233.88129166666667
0.6000000000000001,-8.087190094076552,73.41587168275679,144.8027977397007,9.291844705676878,241.02230678104573,247.9285053104575,233.89378084150326
0.7000000000000001,-8.016141899898201,73.49367718079668,143.21612973011383,9.32382488148606,241.0653807189543,247.96666135620913,233.89687540849673
0.8,-8.054542260655465,73.74164838764996,140.2819845490301,9.299148007269451,241.07809405940597,248.04307962046207,233.90312499999996
0.9,-8.181506030238559,74.124925792683,136.44983012796064,9.26459151447772,241.06860561056104,248.15300123762373,233.90308374587457
1.0,-8.313726010887015,74.53680520762774,132.58227916655036,9.428759697909092,241.025,248.11666666666667,233.890625
1.1,-8.36101267429851,74.85641303204913,129.49398064232184,10.175761857173816,240.93894769938163,247.72284887772767,233.84289467781733
1.2000000000000002,-8.284089427827146,75.01606584524494,127.56810826278395,11.873105019640718,240.80611321548824,246.70756523569034,233.74146675084174
1.3,-8.103878095129403,75.03298991281885,126.65087754845246,14.56793963230029,240.62972755608894,245.55454535036844,233.63109189825232
1.4000000000000001,-7.872389923848043,74.98458219056546,126.16830514497548,17.93006124423798,240.42460937500002,244.14687500000022,233.49726562500004
1.5,-7.634319840753494,74.94764253712673,125.44790231079021,21.49912489431964,240.20434627681516,242.83698000464108,233.3736131910066
1.6,-7.391382118462459,74.94825685850505,124.15635770760595,24.985213195572772,239.9782268461221,241.6794154806107,233.2653349319307
1.7000000000000002,-7.095241272500293,74.955781167988,122.49968837662318,28.391744164507983,239.7420560515873,240.58142857142866,233.16567832341272
1.8,-6.688836707637496,74.91505037430274,120.9837311767376,31.852547801565667,239.4759494606269,239.49499849532958,233.06673261187726
1.9000000000000001,-6.161262843938439,74.7852107007137,119.99188549215285,35.361368741046995,239.19043682670156,238.5153741914581,232.9729295829052
2.0,-5.556275585007737,74.55963360030397,119.55028371857587,38.73001500703233,238.87030863242572,237.57014877268975,232.88212536097362
2.1,-4.922109207425735,74.26152394663119,119.4100378143429,41.79957962518972,238.50690104166665,236.70755208333335,232.79934895833333
2.2,-4.255101369254835,73.9247862927818,119.29764220535026,44.56876571367403,238.14322916666666,235.94401041666674,232.719140625
2.3000000000000003,-3.4991216061976638,73.57559488784567,119.07699088202533,47.13034012019889,237.74700520833326,235.22213541666665,232.62955729166666
2.4000000000000004,-2.6089459821538585,73.22510746149176,118.75149283553459,49.564490229004946,237.32635069874178,234.60977336014852,232.5466851794554
2.5,-1.617798041756175,72.87191824486263,118.44540967299712,51.868896730345085,236.88254166666673,233.95035937500003,232.43653645833334
2.6,-0.6358020251460437,72.50775371075552,118.3882349313282,54.0011384026653,236.41269791666673,233.5890885416667,232.36564192708332
2.7,0.22293326852930387,72.12385612346897,118.75229960965247,55.976099103035956,235.92134660947713,233.1672997344771,232.253070874183
2.8000000000000003,0.9124428613397889,71.71700747805035,119.39153582370996,57.854677372262074,235.4132231099949,232.81259527377378,232.1277985565101
2.9000000000000004,1.4674785983934775,71.29158381696804,119.81173392997623,59.70069846501543,234.88228908828387,232.52720064975247,231.98776557343237
3.0,1.9657512791800407,70.8558245088962,119.5168597118332,61.566505673011875,234.33411458333333,232.28632812499998,231.83203125
3.1,2.4829923677938175,70.41618002036445,118.39763175847058,63.482794535181775,233.77596689356437,232.07843698432347,231.65215294966995
3.2,3.0635114629183686,69.97419996869739,116.7409197944126,65.46485707123712,233.20611458333337,231.90005208333335,231.4406145833333
3.3000000000000003,3.7056443029875212,69.52555665820593,114.89255058303098,67.52951604732762,232.61749948432347,231.76008147689768,231.205198019802
3.4000000000000004,4.364465573876623,69.05974154721001,112.98321865796792,69.71982344885829,232.00598958333342,231.63385416666668,230.9334635416667
3.5,4.9780419372941855,68.56323428244188,110.97998660234042,72.09242327681817,231.40811417079206,231.5073587046205,230.64695364067657
3.6,5.505931943101829,68.02768421336502,108.92312204024967,74.6864598979903,230.79557291666674,231.37091068481854,230.3187255053631
3.7,5.947478510664471,67.45600525869348,107.02927307438426,77.5018301874838,230.17369791666673,231.24114583333335,229.96158854166666
3.8000000000000003,6.321754521635309,66.85880501380079,105.55291845477161,80.48861855212327,229.5429326526403,231.1025525990099,229.5727671204621
3.9000000000000004,6.634701813241814,66.24660855078872,104.60382323581966,83.52877684357372,228.9113281250001,230.93906250000006,229.15885416666674
4.0,6.871329750974872,65.62846253610583,104.1094099489008,86.41951622359306,228.27617187500005,230.7071524339934,228.62272586633665
4.1000000000000005,7.01689838284038,65.01376081820035,103.86874534758186,88.94462172446917,227.6381510416667,230.53697916666667,228.23906250000002
4.2,7.085395067114999,64.40688032492956,103.57846440554744,91.0242441117419,226.9979166666667,230.3067708333334,227.73945312500004
4.3,7.133742391963217,63.79985804211464,102.86657136513249,92.77347356365188,226.3607916408829,230.05175938531355,227.2191897174093
4.4,7.243971959254115,63.17903798886159,101.44387631246042,94.3908916033447,225.73139192708342,229.7692916666667,226.67822526041675
4.5,7.473944258756568,62.54331222916275,99.33493194814083,96.03023794593281,225.10886576938944,229.4619379125413,226.10771709983499
4.6000000000000005,7.813179303715903,61.91098309267496,96.95933889971434,97.76043734834799,224.48527734375008,229.13587500000006,225.5420729166667
4.7,8.18844504828293,61.305365000503734,94.89790948548777,99.56658097002507,223.86069921875,228.80451041666666,224.96062630208334
4.800000000000001,8.51996004491646,60.73876101426831,93.50488963505028,101.3632877744031,223.22989280373358,228.44197019389443,224.32802531971956
4.9,8.779379616059986,60.21424707965196,92.71293046174253,103.08241386828406,222.62709493605612,228.10558477722773,223.7642442759901
5.0,9.00293592321466,59.73460551872821,92.18290682830066,104.73360031580161,222.00247395833335,227.7463541666667,223.1506510416667
5.1000000000000005,9.259566544915694,59.29717865580135,91.62508701194884,106.34066774103353,221.36427134900987,227.40370771452146,222.53687474216167
5.2,9.608280057957726,58.8803617594179,90.99538854662758,107.89408311778065,220.71052587407178,227.003357570132,221.81609983498353
5.300000000000001,10.072876325321383,58.44722602248686,90.43265576550486,109.37859217425152,220.04993554042906,226.7547081270627,221.35975788985152
5.4,10.635457272822586,57.97151517919402,90.05517971791369,110.77021795653832,219.3649597772278,226.44955136138617,220.77175639438948
5.5,11.236328307092037,57.461244998555834,89.82395748040629,112.03668993091718,218.63691857467006,226.16949773102314,220.1969716893565
5.6000000000000005,11.781842730271832,56.955767888159166,89.57657298281123,113.19674310449032,217.87552470090762,225.92559302805282,219.644651144802
5.7,12.174165870092274,56.49807369331702,89.16536186587791,114.35042020791883,217.0790944719473,225.70505878712876,219.0970735354786
5.800000000000001,12.358020835186581,56.10594327507505,88.54533395276628,115.56795550279679,216.23892578125,225.50510416666668,218.57072916666667
5.9,12.357295887609277,55.766023517865385,87.75603382867388,116.77349245178827,215.3393893229168,225.31975000000003,218.0708125000001
6.0,12.27288570333838,55.4548138703301,86.88159088700904,117.81567494235412,214.38223600576464,225.1526606998382,217.59854324686492
6.1000000000000005,12.22800041303062,55.16658713606386,86.04880284844087,118.6216192677313,213.3597312423902,225.0048535178154,217.1455858711631
6.2,12.288829721474299,54.92255949063806,85.42697277826367,119.25265656955325,212.30049218750014,224.83058333333338,216.6319843750001
6.300000000000001,12.426697075436776,54.753539932507465,85.16946370159756,119.83349948398444,211.20167187500002,224.71664583333333,216.34116666666668
6.4,12.55930345306922,54.67187671871027,85.28947005556175,120.43289038395937,210.04452996080877,224.55890573432347,215.97901969884492
6.5,12.63127175970073,54.65590276576925,85.57374415335664,121.00759896851325,208.84479166666674,224.4078125,215.6736979166667
6.6000000000000005,12.65672406380444,54.65775351864445,85.67622329227686,121.46078869469464,207.6169895833334,224.22433333333333,215.35205729166668
6.7,12.691866934729745,54.62805093168051,85.3661933862262,121.72405486267935,206.41488887169962,224.03787644389436,215.12423550948847
6.800000000000001,12.772060781437368,54.541527877575504,84.69661330307407,121.83706129287937,205.19544270833327,223.81510416666663,214.90455729166663
6.9,12.870458655776417,54.40909647745294,83.9147950425388,121.94077115669673,203.91080729166688,223.55572916666668,214.70937500000002
7.0,12.916495576253823,54.27154601690819,83.2281338769962,122.12536460307884,202.77221792491756,223.29550845709574,214.55744636963698
7.1000000000000005,12.864049605850397,54.18018663320214,82.679000027535,122.33227643701669,201.8110677083334,223.01302083333334,214.42500000000004
7.2,12.746586874310928,54.17317503500578,82.2212741235673,122.4547789734496,201.11895138459158,222.7087608292079,214.3192940387789
7.300000000000001,12.661562503460274,54.25611966679971,81.86981052508888,122.49329541456878,200.6223996622319,222.38272957920796,214.2434390470297
7.4,12.697757193417601,54.39668108137809,81.74746104918334,122.537606783654,200.2712955471329,222.05787458745877,214.19695678630364
7.5,12.874939213225408,54.54014748051792,81.96907996469271,122.61181050762904,200.01729063531354,221.75171720297033,214.1749793729373
7.6000000000000005,13.14167920999631,54.640940546162575,82.4581068189453,122.62999384380039,199.8765625,221.46197916666668,214.17291666666665
7.7,13.416439870969626,54.69098763393646,82.88252880302218,122.54306084691878,199.8655352116094,221.11609214230248,214.21171435158217
7.800000000000001,13.632720542787027,54.724621039937084,82.83216277797997,122.4018993304919,199.9294730392157,220.92426470588234,214.25606617647057
7.9,13.762190006035189,54.79593465358378,82.14802924411624,122.22739434996457,199.99531249999998,220.736328125,214.34791666666663
8.0,13.80666282957148,54.94502046925777,81.13011596382259,121.8698747577675,199.97343749999996,220.617578125,214.47187500000004
8.1,13.768146340520902,55.17675039639304,80.40752770357307,121.02021614152709,199.8924556518152,220.5459403362211,214.62864067656767
8.200000000000001,13.62621180654847,55.4655765998022,80.54017526909684,119.39242890649587,199.93802083333335,220.53632812500004,214.82122395833332
8.3,13.34706300619336,55.780250185274184,81.6362933072455,116.91582516074318,200.29179687500005,220.611328125,215.0451822916667
8.4,12.911731893329147,56.10708788889938,83.23532359662214,113.69839495459296,201.06963671874988,220.78157291666662,215.3076419270833
8.5,12.331614889111888,56.4536962679054,84.55854322383398,109.78832540615711,202.16280468749997,221.03599999999997,215.60826041666667
8.6,11.643513346022855,56.83518698863903,85.03181936915894,105.09451182414018,203.42006626443876,221.35829723597354,215.94577918729365
8.700000000000001,10.892576482618367,57.259579419989485,84.69709103718736,99.60433339691458,204.693421256188,221.85302702145214,216.38874149133662
8.8,10.109372121464204,57.72383955552564,84.11206720817093,93.51547831152351,205.96797003919127,222.19886035478544,216.67892558787125
8.9,9.299143923753673,58.21810766053233,83.85147046591074,87.09232776488527,207.31770833333312,222.73177083333326,217.09283854166657
9.0,8.459509467687061,58.72998725566236,84.12777527486708,80.55309749677916,208.6895833333334,223.30364583333335,217.52864583333337
9.1,7.607594522393177,59.24522473516013,84.78973369289612,74.13532103380687,210.02018229166654,223.87864583333328,217.96510416666663
9.200000000000001,6.786908194325718,59.747596046284706,85.52383457016742,68.099818885538,211.30546488242558,224.45901918316824,218.40012891914185
9.3,6.049983128441529,60.22234231432886,86.03126455852193,62.58185217536204,212.58515625000007,225.0796875,218.85716145833337
9.4,5.426364136317641,60.66328213746923,86.13533546877704,57.54166971989604,213.83448223039204,225.67218137254895,219.29924683415027
9.5,4.897788446604342,61.07848036545919,85.86678519109216,52.92115896580169,214.98973651960782,226.22677696078426,219.73278441584966
9.600000000000001,4.409567207200916,61.487513550431515,85.50347011488464,48.78336560497689,216.0715075804454,226.73974319306922,220.16074025371282
9.700000000000001,3.916544127538154,61.90735639936835,85.45884520626309,45.217799667832416,217.09945436507917,227.2361855158729,220.58975074404756
9.8,3.4229880762774343,62.334819597196635,86.00719434398083,42.172904819548535,218.04361405476473,227.68033013613856,220.99985107260724
9.9,2.9793560221428503,62.743212678954386,87.0397304260847,39.472492853555714,218.90739221108086,228.08322083573646,221.4010263215338
10.0,2.641876736581775,63.102751903876644,88.09511906568453,36.94953462568564,219.7230456108414,228.45530440938512,221.82449180825245
10.100000000000001,2.4286245192339226,63.409016280062524,88.70811313754683,34.54779988729894,220.44135026041658,228.75260416666663,222.20004166666664
10.200000000000001,2.2947117175325884,63.69060417628134,88.82964955478309,32.293438749927105,221.09660286458322,229.0327395833333,222.58280338541658
10.3,2.1379763677990193,63.986431865986276,88.94855364452418,30.179771006858658,221.72797510078564,229.3356615247636,222.99250652008377
10.4,1.8506725752987696,64.31381011500328,89.77750926344754,28.145826096930918,222.30088672355282,229.6150621036368,223.3662890852504
10.5,1.4081129015136291,64.6552765362383,91.75838995850849,26.150647242554555,222.83146529496696,229.8913211633663,223.76901944100658
10.600000000000001,0.9218778054996886,64.97148260595043,94.76552950150322,24.211438950660845,223.3283209570956,230.1944049092409,224.17282513407585
10.700000000000001,0.6532379426829383,65.25268949944835,97.65400890537212,22.3660759002675,223.8248111979166,230.55291666666662,224.58431640624997
10.8,0.9156434310371053,65.55197294170762,98.35113691419694,20.58744144335994,224.30025783828376,230.94031043729365,224.9751882219471
10.9,0.6738632583118674,65.50498996558406,103.73811474260094,18.78622612077132,224.75572916666658,231.3776041666666,225.38463541666658
11.0,0.9094243947275592,65.5745155549119,105.57003654407767,16.942280685219192,225.2046875,231.86406250000002,225.80546875000002
11.100000000000001,1.0287818762415148,65.65898399372765,106.99882138857332,15.161570066794662,225.6671978135313,232.42989248143556,226.2035182033828
11.200000000000001,0.9447215109102638,65.80281665058615,108.05244511313852,13.592073947662028,226.11848958333326,233.0332031249999,226.58320312499995
11.3,0.6921041161774512,66.0167071728075,108.66307999691395,12.346324233861884,226.58003059050165,233.71677735971687,226.983884291167
11.4,0.3615203095768873,66.26708671310335,108.9687809671072,11.436982675311398,227.0440271406727,234.47003416475522,227.36450090787457
11.5,0.03163805688034832,66.49871968398111,109.3935647091314,10.763296145634293,227.4887092615511,235.21526531559402,227.70794528671615
11.600000000000001,-0.2473876603690334,66.67462613389242,110.40093887511757,10.2223734005386,227.94470400165008,235.99987881600646,228.0098030115511
11.700000000000001,-0.44419752245168126,66.79617972752484,112.2121575868541,9.795512603520415,228.3965403645833,236.83123828124994,228.2982708333333
11.8,-0.5005253670226216,66.87935294993575,114.63237653657183,9.499925218426807,228.84373327918718,237.69473668265246,228.56108921204614
11.9,-0.47148566515625384,66.93964465561966,117.43833096538144,9.330666234054346,229.27170353754119,238.53562809405935,228.78448329207922
12.0,-0.391268823462707,66.96413199709644,120.15402212917174,9.25621679748612,229.68867187500004,239.3807291666667,228.97343749999996
12.100000000000001,-0.33665098500166196,66.94213077401666,122.29675609240894,9.221024552592764,230.09084137788773,240.23585018306505,229.13151681105606
12.200000000000001,-0.38057395399504385,66.88563838509195,123.5504688590549,9.176692052045778,230.4759374999999,241.06696744791648,229.25291666666666
12.3,-0.5504767158577697,66.82553907788699,124.04543514877355,9.106662450426072,230.83529104785475,242.06578253919136,229.36532281353132
12.4,-0.8026563652164705,66.78732787353373,124.38326837709798,9.017753068295093,231.16952093646861,242.60831191986384,229.4079990717822
12.5,-1.0366202098968753,66.77422584942742,125.25233614465542,8.94316874808178,231.47985416666666,243.32830208333334,229.43595833333333
12.600000000000001,-1.150454618614993,66.77264119389109,126.92686561809965,8.934597572369677,231.76800319719464,244.0082815594058,229.44218749999996
12.700000000000001,-1.1077014204482165,66.76947959354744,129.08365534641936,8.99211023655855,232.03180208333325,244.6278958333332,229.44213541666667
12.8,-0.9690330111376907,66.76300832095832,131.06448787767053,9.061569531202442,232.27337819719472,245.1818791254125,229.42644905115512
12.9,-0.8608909953344247,66.76049105648337,132.3238132746602,9.100932405407773,232.49140624999995,245.6843749999999,229.3921875
13.0,-0.8985735674436134,66.7682157148637,132.71056806047542,9.10160250007654,232.68680208333333,246.13467708333334,229.3514375
13.100000000000001,-1.114096683057346,66.78240986124251,132.46085445645812,9.078757892041361,232.86698350736162,246.5335693429779,229.31369361602424
13.200000000000001,-1.436041409268696,66.78792851567714,132.007988448853,9.054408828036118,233.02887591019416,246.86967030744327,229.2768052184466
13.3,-1.7353242675264025,66.76894201377071,131.74604849238645,9.041463897223927,233.17244573262474,247.1577274639228,229.23780536141848
13.4,-1.9097846196482304,66.72722300746311,131.84593265007675,9.028576143034554,233.29826899509803,247.38359885620912,229.2047998366013
13.5,-1.949826589360056,66.69244649716107,132.21062795406758,9.011398447000607,233.42235715759077,247.58746905940595,229.1827299917492
13.600000000000001,-1.9323128631931,66.71040805826209,132.587977121859,9.018398063040124,233.53131961633662,247.73788160066007,229.17030218646866
13.700000000000001,-1.9486590810673519,66.81319363600478,132.7552839970186,9.058883478402782,233.62890625,247.85312499999998,229.16718750000004
13.8,-2.0325305350281293,66.99297666294366,132.65177852626394,9.094689757613361,233.71983333333333,247.93457291666664,229.16722916666671
13.9,-2.14622960755669,67.20046747039432,132.39139281950733,9.080772789549698,233.81107714521454,247.9940604372937,229.1799048061056
14.0,-2.2266196094540063,67.37124920289175,132.18182960015238,9.011040887827306,233.90316367574258,248.025,229.2016759488449
14.100000000000001,-2.239262401262462,67.46384593233024,132.21307820483648,8.937984546573697,233.99065336221122,248.0249587458746,229.23607157590757
14.200000000000001,-2.190544219208108,67.48522183119037,132.56002223349319,8.924602612793214,234.07682291666666,248.01249999999996,229.27656249999998
14.3,-2.10103144627287,67.48603736013224,133.14708616159717,8.96269634043915,234.16119791666665,248.00312500000004,229.31718749999996
