Time (s),Position U1 (mm),Velocity U1 (mm/s),Position U2 (mm),Velocity U2 (mm/s),Position U3 (mm),Velocity U3 (mm/s)
0.00,200.00,0.09,202.00,0.11,200.00,0.09
0.40,200.04,0.18,202.04,0.22,200.04,0.18
0.80,200.15,0.37,202.18,0.44,200.14,0.35
1.20,200.33,0.55,202.39,0.65,200.32,0.52
1.60,200.59,0.73,202.70,0.87,200.56,0.69
2.00,200.91,0.90,203.09,1.08,200.87,0.86
2.40,201.31,1.08,203.56,1.28,201.25,1.03
2.80,201.77,1.24,204.11,1.48,201.69,1.19
3.20,202.31,1.41,204.75,1.68,202.20,1.34
3.60,202.90,1.57,205.46,1.87,202.77,1.49
4.00,203.56,1.72,206.24,2.05,203.39,1.64
4.40,204.27,1.86,207.09,2.22,204.08,1.77
4.80,205.05,2.00,208.01,2.38,204.81,1.90
5.20,205.87,2.12,209.00,2.53,205.60,2.03
5.60,206.74,2.24,210.04,2.67,206.43,2.14
6.00,207.66,2.35,211.13,2.80,207.31,2.24
6.40,208.63,2.45,212.28,2.92,208.23,2.34
6.80,209.63,2.54,213.47,3.03,209.18,2.43
7.20,210.66,2.62,214.71,3.13,210.17,2.50
7.60,211.73,2.69,215.97,3.21,211.18,2.57
8.00,212.82,2.75,217.27,3.28,212.22,2.62
8.40,213.93,2.80,218.60,3.33,213.28,2.67
8.80,215.05,2.83,219.94,3.38,214.36,2.70
9.20,216.19,2.86,221.30,3.40,215.44,2.72
9.60,217.34,2.87,222.66,3.42,216.54,2.73
10.00,218.49,2.87,224.03,3.42,217.63,2.73
10.40,219.63,2.86,225.40,3.40,218.72,2.72
10.80,220.77,2.83,226.75,3.38,219.81,2.70
11.20,221.90,2.80,228.10,3.33,220.88,2.67
11.60,223.01,2.75,229.42,3.28,221.94,2.62
12.00,224.10,2.69,230.72,3.21,222.98,2.57
12.40,225.16,2.62,231.99,3.13,224.00,2.50
12.80,226.20,2.54,233.22,3.03,224.99,2.43
13.20,227.20,2.45,234.41,2.92,225.94,2.34
13.60,228.16,2.35,235.56,2.80,226.86,2.24
14.00,229.08,2.24,236.66,2.67,227.73,2.14
14.40,229.96,2.12,237.70,2.53,228.57,2.03
14.80,230.78,2.00,238.68,2.38,229.36,1.90
15.20,231.55,1.86,239.60,2.22,230.09,1.77
15.60,232.27,1.72,240.45,2.05,230.77,1.64
16.00,232.92,1.57,241.24,1.87,231.40,1.49
16.40,233.52,1.41,241.95,1.68,231.97,1.34
16.80,234.05,1.24,242.58,1.48,232.48,1.19
17.20,234.52,1.08,243.13,1.28,232.92,1.03
17.60,234.91,0.90,243.61,1.08,233.30,0.86
18.00,235.24,0.73,243.99,0.87,233.61,0.69
18.40,235.49,0.55,244.30,0.65,233.85,0.52
18.80,235.68,0.37,244.52,0.44,234.03,0.35
19.20,235.79,0.18,244.65,0.22,234.13,0.18
19.60,235.83,0.05,244.69,0.05,234.17,0.04
20.00,235.83,-1.58,244.69,-7.00,234.17,-1.35
20.40,234.56,-3.67,239.09,-13.29,233.09,-2.91
20.80,232.89,-4.65,234.06,-10.81,231.84,-3.40
21.20,230.83,-5.21,230.45,-6.50,230.36,-3.91
21.60,228.72,-5.02,228.86,-2.11,228.71,-4.14
22.00,226.82,-4.53,228.76,-0.76,227.05,-3.85
22.40,225.10,-4.30,228.25,-4.50,225.63,-3.01
22.80,223.38,-4.46,225.16,-11.91,224.64,-1.94
23.20,221.53,-4.77,218.72,-18.31,224.08,-1.21
23.60,219.56,-5.17,210.51,-18.69,223.68,-1.24
24.00,217.39,-6.15,203.77,-10.64,223.08,-2.06
24.40,214.65,-8.19,202.00,-0.07,222.03,-3.22
24.80,210.84,-10.90,203.71,8.65,220.51,-4.07
25.20,205.93,-12.65,208.92,12.88,218.78,-4.09
25.60,200.72,-7.41,214.02,10.21,217.24,-3.31
26.00,200.00,-0.90,217.08,4.95,216.14,-2.20
26.40,200.00,0.00,217.98,1.03,215.48,-1.26
26.80,200.00,0.00,217.91,0.43,215.13,-0.49
27.20,200.00,0.00,218.33,2.69,215.08,0.54
27.60,200.00,2.57,220.07,5.89,215.56,2.22
28.00,202.05,8.61,223.04,7.97,216.86,4.30
28.40,206.89,11.85,226.44,7.87,219.00,5.99
28.80,211.53,10.67,229.33,5.92,221.65,6.52
29.20,215.43,8.76,231.18,3.42,224.22,5.72
29.60,218.54,6.99,232.07,1.66,226.22,4.16
30.00,221.02,5.60,232.51,1.23,227.54,2.71
30.40,223.02,4.39,233.05,1.96,228.39,1.84
30.80,224.54,3.23,234.07,3.15,229.02,1.50
31.20,225.60,2.22,235.57,3.91,229.58,1.34
31.60,226.32,1.56,237.20,3.75,230.09,1.15
32.00,226.85,1.32,238.57,2.88,230.50,0.90
32.40,227.37,1.40,239.51,1.91,230.81,0.64
32.80,227.97,1.57,240.10,1.23,231.01,0.38
33.20,228.63,1.60,240.49,0.95,231.11,0.12
33.60,229.24,1.39,240.85,1.03,231.11,-0.12
34.00,229.74,1.07,241.31,1.33,231.02,-0.29
34.40,230.10,0.83,241.92,1.67,230.88,-0.34
34.80,230.40,0.76,242.65,1.87,230.74,-0.31
35.20,230.70,0.77,243.42,1.91,230.63,-0.32
35.60,231.02,0.70,244.17,1.80,230.49,-0.51
36.00,231.26,0.48,244.86,1.50,230.22,-0.89
36.40,231.40,0.24,245.38,0.87,229.77,-1.14
36.80,231.45,0.18,245.56,-0.14,229.30,-0.75
37.20,231.54,0.45,245.26,-1.26,229.17,0.52
37.60,231.81,1.02,244.55,-1.88,229.72,2.27
38.00,232.36,1.68,243.76,-1.58,230.98,3.51
38.40,233.16,2.17,243.29,-0.51,232.53,3.44
38.80,234.09,2.34,243.35,0.71,233.73,2.14
39.20,235.02,2.28,243.86,1.55,234.24,0.58
39.60,235.92,1.00,244.59,1.05,234.20,-0.09
40.00,235.83,-1.70,244.69,-6.87,234.17,-1.39
40.40,234.56,-3.67,239.09,-13.29,233.09,-2.91
40.80,232.89,-4.65,234.06,-10.81,231.84,-3.40
41.20,230.83,-5.21,230.45,-6.50,230.36,-3.91
41.60,228.72,-5.02,228.86,-2.11,228.71,-4.14
42.00,226.82,-4.53,228.76,-0.76,227.05,-3.85
42.40,225.10,-4.30,228.25,-4.50,225.63,-3.01
42.80,223.38,-4.46,225.16,-11.91,224.64,-1.94
43.20,221.53,-4.77,218.72,-18.31,224.08,-1.21
43.60,219.56,-5.17,210.51,-18.69,223.68,-1.24
44.00,217.39,-6.15,203.77,-10.64,223.08,-2.06
44.40,214.65,-8.19,202.00,-0.07,222.03,-3.22
44.80,210.84,-10.90,203.71,8.65,220.51,-4.07
45.20,205.93,-12.65,208.92,12.88,218.78,-4.09
45.60,200.72,-7.41,214.02,10.21,217.24,-3.31
46.00,200.00,-0.90,217.08,4.95,216.14,-2.20
46.40,200.00,0.00,217.98,1.03,215.48,-1.26
46.80,200.00,0.00,217.91,0.43,215.13,-0.49
47.20,200.00,0.00,218.33,2.69,215.08,0.54
47.60,200.00,2.57,220.07,5.89,215.56,2.22
48.00,202.05,8.61,223.04,7.97,216.86,4.30
48.40,206.89,11.85,226.44,7.87,219.00,5.99
48.80,211.53,10.67,229.33,5.92,221.65,6.52
49.20,215.43,8.76,231.18,3.42,224.22,5.72
49.60,218.54,6.99,232.07,1.66,226.22,4.16
50.00,221.02,5.60,232.51,1.23,227.54,2.71
50.40,223.02,4.39,233.05,1.96,228.39,1.84
50.80,224.54,3.23,234.07,3.15,229.02,1.50
51.20,225.60,2.22,235.57,3.91,229.58,1.34
51.60,226.32,1.56,237.20,3.75,230.09,1.15
52.00,226.85,1.32,238.57,2.88,230.50,0.90
52.40,227.37,1.40,239.51,1.91,230.81,0.64
52.80,227.97,1.57,240.10,1.23,231.01,0.38
53.20,228.63,1.60,240.49,0.95,231.11,0.12
53.60,229.24,1.39,240.85,1.03,231.11,-0.12
54.00,229.74,1.07,241.31,1.33,231.02,-0.29
54.40,230.10,0.83,241.92,1.67,230.88,-0.34
54.80,230.40,0.76,242.65,1.87,230.74,-0.31
55.20,230.70,0.77,243.42,1.91,230.63,-0.32
55.60,231.02,0.70,244.17,1.80,230.49,-0.51
56.00,231.26,0.48,244.86,1.50,230.22,-0.89
56.40,231.40,0.24,245.38,0.87,229.77,-1.14
56.80,231.45,0.18,245.56,-0.14,229.30,-0.75
57.20,231.54,0.45,245.26,-1.26,229.17,0.52
57.60,231.81,1.02,244.55,-1.88,229.72,2.27
58.00,232.36,1.68,243.76,-1.58,230.98,3.51
58.40,233.16,2.17,243.29,-0.51,232.53,3.44
58.80,234.09,2.34,243.35,0.71,233.73,2.14
59.20,235.02,2.28,243.86,1.55,234.24,0.58
59.60,235.92,1.00,244.59,1.05,234.20,-0.09
60.00,235.83,-1.70,244.69,-6.87,234.17,-1.39
60.40,234.56,-3.67,239.09,-13.29,233.09,-2.91
60.80,232.89,-4.65,234.06,-10.81,231.84,-3.40
61.20,230.83,-5.21,230.45,-6.50,230.36,-3.91
61.60,228.72,-5.02,228.86,-2.11,228.71,-4.14
62.00,226.82,-4.53,228.76,-0.76,227.05,-3.85
62.40,225.10,-4.30,228.25,-4.50,225.63,-3.01
62.80,223.38,-4.46,225.16,-11.91,224.64,-1.94
63.20,221.53,-4.77,218.72,-18.31,224.08,-1.21
63.60,219.56,-5.17,210.51,-18.69,223.68,-1.24
64.00,217.39,-6.15,203.77,-10.64,223.08,-2.06
64.40,214.65,-8.19,202.00,-0.07,222.03,-3.22
64.80,210.84,-10.90,203.71,8.65,220.51,-4.07
65.20,205.93,-12.65,208.92,12.88,218.78,-4.09
65.60,200.72,-7.41,214.02,10.21,217.24,-3.31
66.00,200.00,-0.90,217.08,4.95,216.14,-2.20
66.40,200.00,0.00,217.98,1.03,215.48,-1.26
66.80,200.00,0.00,217.91,0.43,215.13,-0.49
67.20,200.00,0.00,218.33,2.69,215.08,0.54
67.60,200.00,2.57,220.07,5.89,215.56,2.22
68.00,202.05,8.61,223.04,7.97,216.86,4.30
68.40,206.89,11.85,226.44,7.87,219.00,5.99
68.80,211.53,10.67,229.33,5.92,221.65,6.52
69.20,215.43,8.76,231.18,3.42,224.22,5.72
69.60,218.54,6.99,232.07,1.66,226.22,4.16
70.00,221.02,5.60,232.51,1.23,227.54,2.71
70.40,223.02,4.39,233.05,1.96,228.39,1.84
70.80,224.54,3.23,234.07,3.15,229.02,1.50
71.20,225.60,2.22,235.57,3.91,229.58,1.34
71.60,226.32,1.56,237.20,3.75,230.09,1.15
72.00,226.85,1.32,238.57,2.88,230.50,0.90
72.40,227.37,1.40,239.51,1.91,230.81,0.64
72.80,227.97,1.57,240.10,1.23,231.01,0.38
73.20,228.63,1.60,240.49,0.95,231.11,0.12
73.60,229.24,1.39,240.85,1.03,231.11,-0.12
74.00,229.74,1.07,241.31,1.33,231.02,-0.29
74.40,230.10,0.83,241.92,1.67,230.88,-0.34
74.80,230.40,0.76,242.65,1.87,230.74,-0.31
75.20,230.70,0.77,243.42,1.91,230.63,-0.32
75.60,231.02,0.70,244.17,1.80,230.49,-0.51
76.00,231.26,0.48,244.86,1.50,230.22,-0.89
76.40,231.40,0.24,245.38,0.87,229.77,-1.14
76.80,231.45,0.18,245.56,-0.14,229.30,-0.75
77.20,231.54,0.45,245.26,-1.26,229.17,0.52
77.60,231.81,1.02,244.55,-1.88,229.72,2.27
78.00,232.36,1.68,243.76,-1.58,230.98,3.51
78.40,233.16,2.17,243.29,-0.51,232.53,3.44
78.80,234.09,2.34,243.35,0.71,233.73,2.14
79.20,235.02,2.28,243.86,1.55,234.24,0.58
79.60,235.92,1.00,244.59,1.05,234.20,-0.09
80.00,235.83,-1.70,244.69,-6.87,234.17,-1.39
80.40,234.56,-3.67,239.09,-13.29,233.09,-2.91
80.80,232.89,-4.65,234.06,-10.81,231.84,-3.40
81.20,230.83,-5.21,230.45,-6.50,230.36,-3.91
81.60,228.72,-5.02,228.86,-2.11,228.71,-4.14
82.00,226.82,-4.53,228.76,-0.76,227.05,-3.85
82.40,225.10,-4.30,228.25,-4.50,225.63,-3.01
82.80,223.38,-4.46,225.16,-11.91,224.64,-1.94
83.20,221.53,-4.77,218.72,-18.31,224.08,-1.21
83.60,219.56,-5.17,210.51,-18.69,223.68,-1.24
84.00,217.39,-6.15,203.77,-10.64,223.08,-2.06
84.40,214.65,-8.19,202.00,-0.07,222.03,-3.22
84.80,210.84,-10.90,203.71,8.65,220.51,-4.07
85.20,205.93,-12.65,208.92,12.88,218.78,-4.09
85.60,200.72,-7.41,214.02,10.21,217.24,-3.31
86.00,200.00,-0.90,217.08,4.95,216.14,-2.20
86.40,200.00,0.00,217.98,1.03,215.48,-1.26
86.80,200.00,0.00,217.91,0.43,215.13,-0.49
87.20,200.00,0.00,218.33,2.69,215.08,0.54
87.60,200.00,2.57,220.07,5.89,215.56,2.22
88.00,202.05,8.61,223.04,7.97,216.86,4.30
88.40,206.89,11.85,226.44,7.87,219.00,5.99
88.80,211.53,10.67,229.33,5.92,221.65,6.52
89.20,215.43,8.76,231.18,3.42,224.22,5.72
89.60,218.54,6.99,232.07,1.66,226.22,4.16
90.00,221.02,5.60,232.51,1.23,227.54,2.71
90.40,223.02,4.39,233.05,1.96,228.39,1.84
90.80,224.54,3.23,234.07,3.15,229.02,1.50
91.20,225.60,2.22,235.57,3.91,229.58,1.34
91.60,226.32,1.56,237.20,3.75,230.09,1.15
92.00,226.85,1.32,238.57,2.88,230.50,0.90
92.40,227.37,1.40,239.51,1.91,230.81,0.64
92.80,227.97,1.57,240.10,1.23,231.01,0.38
93.20,228.63,1.60,240.49,0.95,231.11,0.12
93.60,229.24,1.39,240.85,1.03,231.11,-0.12
94.00,229.74,1.07,241.31,1.33,231.02,-0.29
94.40,230.10,0.83,241.92,1.67,230.88,-0.34
94.80,230.40,0.76,242.65,1.87,230.74,-0.31
95.20,230.70,0.77,243.42,1.91,230.63,-0.32
95.60,231.02,0.70,244.17,1.80,230.49,-0.51
96.00,231.26,0.48,244.86,1.50,230.22,-0.89
96.40,231.40,0.24,245.38,0.87,229.77,-1.14
96.80,231.45,0.18,245.56,-0.14,229.30,-0.75
97.20,231.54,0.45,245.26,-1.26,229.17,0.52
97.60,231.81,1.02,244.55,-1.88,229.72,2.27
98.00,232.36,1.68,243.76,-1.58,230.98,3.51
98.40,233.16,2.17,243.29,-0.51,232.53,3.44
98.80,234.09,2.34,243.35,0.71,233.73,2.14
99.20,235.02,2.28,243.86,1.55,234.24,0.58
99.60,235.92,1.00,244.59,1.05,234.20,-0.09
100.00,235.83,-1.70,244.69,-6.87,234.17,-1.39
100.40,234.56,-3.67,239.09,-13.29,233.09,-2.91
100.80,232.89,-4.65,234.06,-10.81,231.84,-3.40
101.20,230.83,-5.21,230.45,-6.50,230.36,-3.91
101.60,228.72,-5.02,228.86,-2.11,228.71,-4.14
102.00,226.82,-4.53,228.76,-0.76,227.05,-3.85
102.40,225.10,-4.30,228.25,-4.50,225.63,-3.01
102.80,223.38,-4.46,225.16,-11.91,224.64,-1.94
103.20,221.53,-4.77,218.72,-18.31,224.08,-1.21
103.60,219.56,-5.17,210.51,-18.69,223.68,-1.24
104.00,217.39,-6.15,203.77,-10.64,223.08,-2.06
104.40,214.65,-8.19,202.00,-0.07,222.03,-3.22
104.80,210.84,-10.90,203.71,8.65,220.51,-4.07
105.20,205.93,-12.65,208.92,12.88,218.78,-4.09
105.60,200.72,-7.41,214.02,10.21,217.24,-3.31
106.00,200.00,-0.90,217.08,4.95,216.14,-2.20
106.40,200.00,0.00,217.98,1.03,215.48,-1.26
106.80,200.00,0.00,217.91,0.43,215.13,-0.49
107.20,200.00,0.00,218.33,2.69,215.08,0.54
107.60,200.00,2.57,220.07,5.89,215.56,2.22
108.00,202.05,8.61,223.04,7.97,216.86,4.30
108.40,206.89,11.85,226.44,7.87,219.00,5.99
108.80,211.53,10.67,229.33,5.92,221.65,6.52
109.20,215.43,8.76,231.18,3.42,224.22,5.72
109.60,218.54,6.99,232.07,1.66,226.22,4.16
110.00,221.02,5.60,232.51,1.23,227.54,2.71
110.40,223.02,4.39,233.05,1.96,228.39,1.84
110.80,224.54,3.23,234.07,3.15,229.02,1.50
111.20,225.60,2.22,235.57,3.91,229.58,1.34
111.60,226.32,1.56,237.20,3.75,230.09,1.15
112.00,226.85,1.32,238.57,2.88,230.50,0.90
112.40,227.37,1.40,239.51,1.91,230.81,0.64
112.80,227.97,1.57,240.10,1.23,231.01,0.38
113.20,228.63,1.60,240.49,0.95,231.11,0.12
113.60,229.24,1.39,240.85,1.03,231.11,-0.12
114.00,229.74,1.07,241.31,1.33,231.02,-0.29
114.40,230.10,0.83,241.92,1.67,230.88,-0.34
114.80,230.40,0.76,242.65,1.87,230.74,-0.31
115.20,230.70,0.77,243.42,1.91,230.63,-0.32
115.60,231.02,0.70,244.17,1.80,230.49,-0.51
116.00,231.26,0.48,244.86,1.50,230.22,-0.89
116.40,231.40,0.24,245.38,0.87,229.77,-1.14
116.80,231.45,0.18,245.56,-0.14,229.30,-0.75
117.20,231.54,0.45,245.26,-1.26,229.17,0.52
117.60,231.81,1.02,244.55,-1.88,229.72,2.27
118.00,232.36,1.68,243.76,-1.58,230.98,3.51
118.40,233.16,2.17,243.29,-0.51,232.53,3.44
118.80,234.09,2.34,243.35,0.71,233.73,2.14
119.20,235.02,2.28,243.86,1.55,234.24,0.58
119.60,235.92,1.00,244.59,1.05,234.20,-0.09
120.00,235.83,-1.70,244.69,-6.87,234.17,-1.39
120.40,234.56,-3.67,239.09,-13.29,233.09,-2.91
120.80,232.89,-4.65,234.06,-10.81,231.84,-3.40
121.20,230.83,-5.21,230.45,-6.50,230.36,-3.91
121.60,228.72,-5.02,228.86,-2.11,228.71,-4.14
122.00,226.82,-4.53,228.76,-0.76,227.05,-3.85
122.40,225.10,-4.30,228.25,-4.50,225.63,-3.01
122.80,223.38,-4.46,225.16,-11.91,224.64,-1.94
123.20,221.53,-4.77,218.72,-18.31,224.08,-1.21
123.60,219.56,-5.17,210.51,-18.69,223.68,-1.24
124.00,217.39,-6.15,203.77,-10.64,223.08,-2.06
124.40,214.65,-8.19,202.00,-0.07,222.03,-3.22
124.80,210.84,-10.90,203.71,8.65,220.51,-4.07
125.20,205.93,-12.65,208.92,12.88,218.78,-4.09
125.60,200.72,-7.41,214.02,10.21,217.24,-3.31
126.00,200.00,-0.90,217.08,4.95,216.14,-2.20
126.40,200.00,0.00,217.98,1.03,215.48,-1.26
126.80,200.00,0.00,217.91,0.43,215.13,-0.49
127.20,200.00,0.00,218.33,2.69,215.08,0.54
127.60,200.00,2.57,220.07,5.89,215.56,2.22
128.00,202.05,8.61,223.04,7.97,216.86,4.30
128.40,206.89,11.85,226.44,7.87,219.00,5.99
128.80,211.53,10.67,229.33,5.92,221.65,6.52
129.20,215.43,8.76,231.18,3.42,224.22,5.72
129.60,218.54,6.99,232.07,1.66,226.22,4.16
130.00,221.02,5.60,232.51,1.23,227.54,2.71
130.40,223.02,4.39,233.05,1.96,228.39,1.84
130.80,224.54,3.23,234.07,3.15,229.02,1.50
131.20,225.60,2.22,235.57,3.91,229.58,1.34
131.60,226.32,1.56,237.20,3.75,230.09,1.15
132.00,226.85,1.32,238.57,2.88,230.50,0.90
132.40,227.37,1.40,239.51,1.91,230.81,0.64
132.80,227.97,1.57,240.10,1.23,231.01,0.38
133.20,228.63,1.60,240.49,0.95,231.11,0.12
133.60,229.24,1.39,240.85,1.03,231.11,-0.12
134.00,229.74,1.07,241.31,1.33,231.02,-0.29
134.40,230.10,0.83,241.92,1.67,230.88,-0.34
134.80,230.40,0.76,242.65,1.87,230.74,-0.31
135.20,230.70,0.77,243.42,1.91,230.63,-0.32
135.60,231.02,0.70,244.17,1.80,230.49,-0.51
136.00,231.26,0.48,244.86,1.50,230.22,-0.89
136.40,231.40,0.24,245.38,0.87,229.77,-1.14
136.80,231.45,0.18,245.56,-0.14,229.30,-0.75
137.20,231.54,0.45,245.26,-1.26,229.17,0.52
137.60,231.81,1.02,244.55,-1.88,229.72,2.27
138.00,232.36,1.68,243.76,-1.58,230.98,3.51
138.40,233.16,2.17,243.29,-0.51,232.53,3.44
138.80,234.09,2.34,243.35,0.71,233.73,2.14
139.20,235.02,2.28,243.86,1.55,234.24,0.58
139.60,235.92,1.00,244.59,1.05,234.20,-0.09
140.00,235.83,-1.70,244.69,-6.87,234.17,-1.39
140.40,234.56,-3.67,239.09,-13.29,233.09,-2.91
140.80,232.89,-4.65,234.06,-10.81,231.84,-3.40
141.20,230.83,-5.21,230.45,-6.50,230.36,-3.91
141.60,228.72,-5.02,228.86,-2.11,228.71,-4.14
142.00,226.82,-4.53,228.76,-0.76,227.05,-3.85
142.40,225.10,-4.30,228.25,-4.50,225.63,-3.01
142.80,223.38,-4.46,225.16,-11.91,224.64,-1.94
143.20,221.53,-4.77,218.72,-18.31,224.08,-1.21
143.60,219.56,-5.17,210.51,-18.69,223.68,-1.24
144.00,217.39,-6.15,203.77,-10.64,223.08,-2.06
144.40,214.65,-8.19,202.00,-0.07,222.03,-3.22
144.80,210.84,-10.90,203.71,8.65,220.51,-4.07
145.20,205.93,-12.65,208.92,12.88,218.78,-4.09
145.60,200.72,-7.41,214.02,10.21,217.24,-3.31
146.00,200.00,-0.90,217.08,4.95,216.14,-2.20
146.40,200.00,0.00,217.98,1.03,215.48,-1.26
146.80,200.00,0.00,217.91,0.43,215.13,-0.49
147.20,200.00,0.00,218.33,2.69,215.08,0.54
147.60,200.00,2.57,220.07,5.89,215.56,2.22
148.00,202.05,8.61,223.04,7.97,216.86,4.30
148.40,206.89,11.85,226.44,7.87,219.00,5.99
148.80,211.53,10.67,229.33,5.92,221.65,6.52
149.20,215.43,8.76,231.18,3.42,224.22,5.72
149.60,218.54,6.99,232.07,1.66,226.22,4.16
150.00,221.02,5.60,232.51,1.23,227.54,2.71
150.40,223.02,4.39,233.05,1.96,228.39,1.84
150.80,224.54,3.23,234.07,3.15,229.02,1.50
151.20,225.60,2.22,235.57,3.91,229.58,1.34
151.60,226.32,1.56,237.20,3.75,230.09,1.15
152.00,226.85,1.32,238.57,2.88,230.50,0.90
152.40,227.37,1.40,239.51,1.91,230.81,0.64
152.80,227.97,1.57,240.10,1.23,231.01,0.38
153.20,228.63,1.60,240.49,0.95,231.11,0.12
153.60,229.24,1.39,240.85,1.03,231.11,-0.12
154.00,229.74,1.07,241.31,1.33,231.02,-0.29
154.40,230.10,0.83,241.92,1.67,230.88,-0.34
154.80,230.40,0.76,242.65,1.87,230.74,-0.31
155.20,230.70,0.77,243.42,1.91,230.63,-0.32
155.60,231.02,0.70,244.17,1.80,230.49,-0.51
156.00,231.26,0.48,244.86,1.50,230.22,-0.89
156.40,231.40,0.24,245.38,0.87,229.77,-1.14
156.80,231.45,0.18,245.56,-0.14,229.30,-0.75
157.20,231.54,0.45,245.26,-1.26,229.17,0.52
157.60,231.81,1.02,244.55,-1.88,229.72,2.27
158.00,232.36,1.68,243.76,-1.58,230.98,3.51
158.40,233.16,2.17,243.29,-0.51,232.53,3.44
158.80,234.09,2.34,243.35,0.71,233.73,2.14
159.20,235.02,2.28,243.86,1.55,234.24,0.58
159.60,235.92,1.00,244.59,1.05,234.20,-0.09
160.00,235.83,-1.70,244.69,-6.87,234.17,-1.39
160.40,234.56,-3.67,239.09,-13.29,233.09,-2.91
160.80,232.89,-4.65,234.06,-10.81,231.84,-3.40
161.20,230.83,-5.21,230.45,-6.50,230.36,-3.91
161.60,228.72,-5.02,228.86,-2.11,228.71,-4.14
162.00,226.82,-4.53,228.76,-0.76,227.05,-3.85
162.40,225.10,-4.30,228.25,-4.50,225.63,-3.01
162.80,223.38,-4.46,225.16,-11.91,224.64,-1.94
163.20,221.53,-4.77,218.72,-18.31,224.08,-1.21
163.60,219.56,-5.17,210.51,-18.69,223.68,-1.24
164.00,217.39,-6.15,203.77,-10.64,223.08,-2.06
164.40,214.65,-8.19,202.00,-0.07,222.03,-3.22
164.80,210.84,-10.90,203.71,8.65,220.51,-4.07
165.20,205.93,-12.65,208.92,12.88,218.78,-4.09
165.60,200.72,-7.41,214.02,10.21,217.24,-3.31
166.00,200.00,-0.90,217.08,4.95,216.14,-2.20
166.40,200.00,0.00,217.98,1.03,215.48,-1.26
166.80,200.00,0.00,217.91,0.43,215.13,-0.49
167.20,200.00,0.00,218.33,2.69,215.08,0.54
167.60,200.00,2.57,220.07,5.89,215.56,2.22
168.00,202.05,8.61,223.04,7.97,216.86,4.30
168.40,206.89,11.85,226.44,7.87,219.00,5.99
168.80,211.53,10.67,229.33,5.92,221.65,6.52
169.20,215.43,8.76,231.18,3.42,224.22,5.72
169.60,218.54,6.99,232.07,1.66,226.22,4.16
170.00,221.02,5.60,232.51,1.23,227.54,2.71
170.40,223.02,4.39,233.05,1.96,228.39,1.84
170.80,224.54,3.23,234.07,3.15,229.02,1.50
171.20,225.60,2.22,235.57,3.91,229.58,1.34
171.60,226.32,1.56,237.20,3.75,230.09,1.15
172.00,226.85,1.32,238.57,2.88,230.50,0.90
172.40,227.37,1.40,239.51,1.91,230.81,0.64
172.80,227.97,1.57,240.10,1.23,231.01,0.38
173.20,228.63,1.60,240.49,0.95,231.11,0.12
173.60,229.24,1.39,240.85,1.03,231.11,-0.12
174.00,229.74,1.07,241.31,1.33,231.02,-0.29
174.40,230.10,0.83,241.92,1.67,230.88,-0.34
174.80,230.40,0.76,242.65,1.87,230.74,-0.31
175.20,230.70,0.77,243.42,1.91,230.63,-0.32
175.60,231.02,0.70,244.17,1.80,230.49,-0.51
176.00,231.26,0.48,244.86,1.50,230.22,-0.89
176.40,231.40,0.24,245.38,0.87,229.77,-1.14
176.80,231.45,0.18,245.56,-0.14,229.30,-0.75
177.20,231.54,0.45,245.26,-1.26,229.17,0.52
177.60,231.81,1.02,244.55,-1.88,229.72,2.27
178.00,232.36,1.68,243.76,-1.58,230.98,3.51
178.40,233.16,2.17,243.29,-0.51,232.53,3.44
178.80,234.09,2.34,243.35,0.71,233.73,2.14
179.20,235.02,2.28,243.86,1.55,234.24,0.58
179.60,235.92,1.00,244.59,1.05,234.20,-0.09
180.00,235.83,-1.70,244.69,-6.87,234.17,-1.39
180.40,234.56,-3.67,239.09,-13.29,233.09,-2.91
180.80,232.89,-4.65,234.06,-10.81,231.84,-3.40
181.20,230.83,-5.21,230.45,-6.50,230.36,-3.91
