time,twist,height,volume,pressure,epi_mm,trans_mm,endo_mm
0.0,-0.257203079085937,69.35513871499059,138.85401895734344,6.019766127183392,235.60390625,248.16145833333334,234.03437500000004
0.1,-0.41857750480592254,69.3012308219193,136.2742516378909,5.924926781130924,235.69145833333334,248.30223958333332,234.08971875
0.2,-0.7619355697237166,69.22244809426464,131.91736734035533,5.860613850665814,235.7065980392157,248.343625,234.126866625817
0.30000000000000004,-1.1562976044933297,69.1641665533859,127.34120518860078,6.034274742852683,235.64131646160936,248.18524597772276,234.0954657792985
0.4,-1.4323417796843358,69.14379693363078,123.45621807340406,6.6494040116143625,235.48248648927392,247.5324319306931,233.92324979372938
0.5,-1.4899704558013642,69.1605062890888,120.75484838745876,7.9504615485242836,235.2153020833333,245.77482291666664,233.43553255208334
0.6000000000000001,-1.364949821874701,69.19573298046282,119.06805138158266,10.196332870314533,234.88184560643563,245.171586221122,233.27149211014844
0.7000000000000001,-1.183522702749234,69.2138777830502,117.83304878686238,13.51519539784959,234.54140625,243.64999999999978,232.86497395833325
0.8,-1.060957473344561,69.16925583902247,116.57665842758281,17.724077566303933,234.2299479166667,241.6022044270836,232.36621484375007
0.9,-1.035991870882981,69.02710330405695,115.18637007803984,22.366248536499857,233.91937514589168,241.05323350694445,232.24064323646124
1.0,-1.0781903471313135,68.78978628045354,113.8094620749139,27.03899030112757,233.60806270424837,239.74841324550655,231.93829146241828
1.1,-1.1362322133032468,68.50283363920148,112.5866200603361,31.644620815668798,233.28411458333335,237.41041666666675,231.34973958333333
1.2000000000000002,-1.1715316851684043,68.22647345008964,111.50202258065265,36.26213011290985,232.96389029401482,236.94019411423992,231.23189401603722
1.3,-1.1530039858854415,67.99326252194642,110.42953279950962,40.89176108624083,232.63828125,235.66054687500022,230.8782552083334
1.4000000000000001,-1.0389520408802912,67.79192110868622,109.27014370228484,45.421922398888775,232.30175,234.8428593749999,230.64449479166663
1.5,-0.787484202260352,67.59247194624119,108.03895154741127,49.79636155643044,231.96738603547854,233.48644157384487,230.23910504331684
1.6,-0.39819333864348677,67.38247179964148,106.81901637850528,54.061596035800086,231.6352181311881,232.44599706064352,229.91165042285476
1.7000000000000002,0.06327562052605566,67.17417004320059,105.6303100764008,58.24995318560871,231.2941462458746,231.76580326938952,229.68271169812297
1.8,0.5005287052317523,66.98123053392456,104.37311728459679,62.34181245373396,230.96212500000001,230.75388541666678,229.3453854166667
1.9000000000000001,0.8574031082462006,66.79917711992256,102.91570037321968,66.34264685550504,230.61724544576165,230.0970725467753,229.1154649851733
2.0,1.156280024236013,66.6114420797493,101.2038630374612,70.28970548991605,230.2738356256044,229.26749979648923,228.85955208518342
2.1,1.472278338231234,66.40774132301523,99.27531497894743,74.11058398837507,229.92917311262374,228.2281817244224,228.53098700495048
2.2,1.8800463729863617,66.19198761331171,97.2219526223658,77.5544490990477,229.5792582947531,227.69403935185179,228.3686149691358
2.3000000000000003,2.4240607207532796,65.97453792197231,95.1843654391754,80.36748245938027,229.21364222359736,226.7880105198019,228.122831580033
2.4000000000000004,3.117615211859796,65.75873947832757,93.36319926197115,82.52738218397242,228.83711067708336,225.78314583333335,227.89199479166666
2.5,3.941968511302349,65.53384319703855,91.97281315130114,84.25732085259968,228.4399386920226,225.1836040848403,227.76777527539684
2.6,4.8378769540884035,65.28095452977097,91.1325932296064,85.82662933020764,228.04678604579206,224.2046978135314,227.59450675536303
2.7,5.715027097169266,64.988125973702,90.79254073311677,87.38549808922382,227.6293858292079,223.509070750825,227.48687474216172
2.8000000000000003,6.49125124908448,64.6615181009875,90.78041110976493,88.92678941966369,227.18490755208336,222.26387630208345,227.33481770833336
2.9000000000000004,7.133669642427072,64.32261811170171,90.93472371233698,90.33995481807027,226.7190201822917,221.27813391426284,227.24748517628203
3.0,7.671490820684336,63.994338474896786,91.17784375911742,91.52376724120005,226.22165406482063,220.53624799679503,227.18810026735846
3.1,8.175981575561316,63.68694320540453,91.4400509398492,92.4642622296186,225.72439192708336,219.16832812500004,227.08936979166666
3.2,8.716697354840015,63.39242604788774,91.548726544133,93.2345009793873,225.18745865563122,218.16684235767335,227.028684044967
3.3000000000000003,9.313297795270607,63.09020273755001,91.27503204924987,93.98104456975675,224.6335701501487,217.4355228496312,226.99241289330902
3.4000000000000004,9.914574406014125,62.761555951173925,90.53885011838268,94.83797974115645,224.05427262050657,215.95230545343148,226.915811376634
3.5,10.426501840182887,62.40387174062087,89.55426105849988,95.7997820944945,223.45284008869635,215.46223571575902,226.88585370255774
3.6,10.779452984594405,62.03411914902777,88.7364293151607,96.74232613829065,222.84371905940588,214.54011061262364,226.81497911509902
3.7,10.992890198313306,61.67957905649532,88.41866919108509,97.56017229819288,222.21044760726068,212.85377217409237,226.66493786097362
3.8000000000000003,11.181397020600064,61.36314852605805,88.59767313220654,98.24485505775156,221.55711046288778,212.78027825126264,226.65657352543292
3.9000000000000004,11.478348286257239,61.090269932921984,88.92583398547923,98.83750822856364,220.90371093750002,211.81942838541667,226.49974609375
4.0,11.928112471837599,60.84134087903533,88.98130145809778,99.37857147292578,220.24880571549008,211.29197946934642,226.36649893725783
4.1000000000000005,12.440880155242924,60.575590399293766,88.57550479595454,99.89992911776496,219.59552309782612,210.89357223731892,226.24555932971012
4.2,12.858815883260197,60.251114890861835,87.81610167193315,100.41800635201211,218.93400893409657,210.45909951268564,226.03794956683168
4.3,13.078616257468111,59.85238694487555,86.91505243090205,100.9449925660785,218.27509797854785,210.24225195957092,225.88368657178216
4.4,13.117739055364856,59.403106297167845,85.9854822663438,101.51600088774588,217.62559818481841,210.0631265470297,225.60351949257426
4.5,13.074411489949172,58.94882611055457,85.03580800252824,102.16757373038699,216.98255208333333,210.04973958333335,225.27109375
4.6000000000000005,13.041430537413186,58.5213649621872,84.1104096341105,102.8882516150096,216.3408972355769,210.09967147435898,225.05980228365385
4.7,13.057539075265943,58.11872355366205,83.34654055891058,103.61509290533503,215.69354077778917,210.26443269836,224.72850777129906
4.800000000000001,13.1164969942131,57.72060272946707,82.85737261879969,104.25303484368823,215.04459828795385,210.6594523514851,224.21912257632016
4.9,13.197409114997797,57.32018455916639,82.60948651121451,104.70774015518998,214.39676724137928,210.91923940373567,223.9449398347701
5.0,13.28042359237463,56.93401271287351,82.45874861867287,104.95921178488538,213.74283854166666,211.35638020833335,223.54231770833334
5.1000000000000005,13.347905722497401,56.578699869214994,82.29699473367312,105.08842645553538,213.07226431002468,211.86721276815186,223.09246181415008
5.2,13.392400069552176,56.24461697069825,82.16108586230489,105.1771370635371,212.36889954620463,212.5740150577557,222.48117007013207
5.300000000000001,13.43338001559372,55.90272324732763,82.2109693830755,105.2322558901822,211.64934895833343,213.23789062499995,221.9388020833334
5.4,13.51275980754866,55.542139157477614,82.56961678907925,105.23912417500908,210.88562922898856,213.69558293269233,221.57112936253557
5.5,13.650130047132834,55.1963954869698,83.12796216384606,105.22658958893442,210.12747395833333,214.39374999999998,220.98567708333334
5.6000000000000005,13.79793933473868,54.9232815148946,83.51189484248906,105.24113150461012,209.3078589108911,214.88783776815183,220.5593685540429
5.7,13.859133370918657,54.75322595433435,83.30824591944837,105.27995329930668,208.45643564356433,215.54012995049507,219.9751482570132
5.800000000000001,13.76536024231595,54.65909536549048,82.3891070363468,105.30407526086873,207.57513407590764,216.08541924504945,219.47830419760734
5.9,13.542942766302588,54.5803745463906,81.0648552865003,105.29150930882355,206.67083204414197,216.63589237830033,218.94425794141918
6.0,13.300750360553673,54.476515093950724,79.93193509690774,105.25372684165406,205.733984375,217.32695312499996,218.20572916666666
6.1000000000000005,13.147951529945976,54.35481061726639,79.50281593044936,105.21761401744362,204.7240046281972,217.5797106538779,217.9158498349835
6.2,13.117739555743434,54.25027213605282,79.87123617374819,105.19399333587243,203.70411780631193,217.98966083952143,217.40790778413782
6.300000000000001,13.162636175631748,54.1863802825128,80.65919179663895,105.18535327177206,202.79060179455448,218.33732853754125,216.94766527433993
6.4,13.208763143036899,54.15767215324242,81.28885930567697,105.21428648955076,201.99713541666662,218.6384114583333,216.5157552083333
6.5,13.208845935957259,54.144122513930284,81.37419638609462,105.28132290404609,201.26354166666667,218.91132812499998,216.03411458333335
6.6000000000000005,13.160789976707468,54.13430520922834,80.94682377318621,105.31529446851573,200.62984269589637,219.1213472151443,215.6379543135839
6.7,13.099297577101135,54.13099618293895,80.3869481234027,105.24011709656901,200.14549249387255,219.2440895629085,215.40356796364378
6.800000000000001,13.077396431716162,54.13641319586632,80.1461133220563,105.04194605959246,199.87118915016504,219.45879099628712,215.02542027640266
6.9,13.148964917061804,54.13826696599909,80.44957908793992,104.72571406909931,199.82370785623414,219.60823493161578,214.76884840171758
7.0,13.354706274547647,54.117271749191794,81.16005862845714,104.2522258048297,199.90420977953008,219.6518188089351,214.702269217055
7.1000000000000005,13.70868855099482,54.07295391680784,81.9044350454029,103.51321661704306,199.98906249999996,219.76549479166667,214.60833333333335
7.2,14.190707093300825,54.04325227925304,82.39665250181571,102.36509378187351,199.9984375,219.93798860354786,214.55940594059405
7.300000000000001,14.755601263935844,54.09470399713851,82.69414928504877,100.71198953918396,199.9984375,220.12552760158826,214.5728380259901
7.4,15.358408796379,54.28161338120018,83.12378536705235,98.55088572897849,199.9984375,220.41966145833337,214.691796875
7.5,15.977121938071976,54.600319623416965,83.92021734168527,95.92786765109133,199.9984375,220.6101474759885,214.79350290080586
7.6000000000000005,16.612119939638813,54.97902733763876,84.94316703826536,92.86719315267794,199.9984375,221.01093749999995,215.0545572916666
7.7,17.261504651541046,55.32308313649079,85.79776532093689,89.35909663800709,199.97334392965504,221.51571108471737,215.42990495748165
7.800000000000001,17.893034424365307,55.585071249153295,86.25908574140708,85.43862789526185,199.95877856182793,222.0107778897849,215.81740591397843
7.9,18.431100943635887,55.798134297793155,86.53729960301412,81.26054768931228,199.97462536549708,222.32881030701756,216.07320449561408
8.0,18.769523913964683,56.04230069179,87.09249489539245,76.99895601918679,200.02030208333335,222.8668125,216.51287109375002
8.1,18.817080543963744,56.37846772546914,88.22052554985167,72.67397617848901,200.01742342202968,223.65214005775567,217.17151273721115
8.200000000000001,18.554352587278718,56.810568662804535,89.83424908140228,68.16252808931205,200.08971374793725,224.1835787953795,217.6254384282178
8.3,18.048966757495933,57.29946589927429,91.60000678638922,63.398635462501865,200.40546875000004,225.02081290849674,218.35070593341507
8.4,17.407652012353235,57.80132329608472,93.22227285968461,58.499312363100124,201.07838541666672,225.84064542483657,219.09760135825164
8.5,16.714646024552863,58.291323550914576,94.56307111258276,53.674194183122125,202.13147074804974,226.27160668049137,219.51327142025977
8.6,16.015241078324156,58.76030438936152,95.53915602021243,49.03633103129951,203.37761629097065,227.13166344664043,220.33430221481112
8.700000000000001,15.33843534314233,59.200974003816185,96.04039908815749,44.53233516852754,204.6485677083335,227.8098958333334,221.02005208333344
8.8,14.711928334231082,59.60382018171231,96.03808082640232,40.11097057898172,205.85273437499984,228.3098958333333,221.55338541666663
8.9,14.14907482396949,59.96481621828726,95.72598719839552,35.892858042243745,207.0895627062708,228.92054971122116,222.25236566625418
9.0,13.627786246493272,60.293202211253494,95.45342583948963,32.102570380615,208.33541666666667,229.53177083333335,222.99934895833334
9.1,13.093503733245063,60.610799281650515,95.46987551220747,28.888544523986464,209.5703199128507,229.86352582802928,223.43065402522396
9.200000000000001,12.494590793216375,60.94277223409506,95.73195628848374,26.241639338629557,210.72504467933013,230.30367647058824,224.06605136846406
9.3,11.8191477879963,61.30335123300335,95.9610061691949,24.04064188820023,211.87463891442,230.55345894607845,224.48791607945267
9.4,11.10090207647959,61.68269968436061,95.90510438775107,22.156450032353707,212.9866607663674,230.8430408847571,225.01350425013433
9.5,10.39793582995524,62.044723432802016,95.58279914772173,20.52793421263722,214.0464895317656,231.04071266501649,225.40364325495045
9.600000000000001,9.766106065988948,62.34333362803506,95.29044375377087,19.139107681632535,215.02278645833323,231.2244791666666,225.79505208333327
9.700000000000001,9.241555640486945,62.552158050798475,95.36028537883412,17.977371717225736,215.94067398927382,231.36207198844883,226.1746583642739
9.8,8.834311956289007,62.68709016637096,95.8926198614086,17.015939591999064,216.79192708333323,231.47552083333335,226.5311197916666
9.9,8.52672219591227,62.79932530976709,96.6860964334456,16.2017491315446,217.58299993070594,231.53875155992162,226.71901901557342
10.0,8.276177215955634,62.93828497567316,97.387400364815,15.477798507117237,218.28367397638192,231.6462158622112,226.9600197504125
10.100000000000001,8.031385588623658,63.113004741913585,97.74225822186129,14.82950706392979,218.92050614316236,231.7463808760684,227.16240540420225
10.200000000000001,7.762926954457217,63.28593889378743,97.80091511679122,14.270511766847314,219.48492254273506,231.809468482906,227.26909165776354
10.3,7.488347802927129,63.405755074464025,97.92788443908726,13.777405934699496,219.99739583333326,231.9704427083333,227.4477864583333
10.4,7.268416114420991,63.4516428226245,98.57532933815314,13.27596652336743,220.45040440526455,232.07251051720195,227.53540632063468
10.5,7.1705533006611075,63.45246249299146,99.98576255988756,12.702783874943785,220.84470750825076,232.26028264232673,227.64726387169966
10.600000000000001,7.218529847567015,63.46577180883389,102.02932572513085,12.059282685244249,221.1830470816799,232.42873057208996,227.7314339451058
10.700000000000001,7.363199598396548,63.53462250545505,104.23815297245852,11.41310301047981,221.49052701122045,232.65000869692622,227.82885588968122
10.8,7.506089440640998,63.65804664725522,106.04012578968222,10.835656926736666,221.77355079816016,232.89405269209954,227.94077888257576
10.9,7.568000309906572,63.79957946789603,107.1476885191027,10.344535257205283,222.01745052083334,233.237046875,228.08040625
11.0,7.546395424066698,63.92419295809443,107.82196483986036,9.921875914530547,222.2332714521452,233.53968002268974,228.2046565594059
11.100000000000001,7.508811903875965,64.02730024492905,108.67848404501625,9.555167930113617,222.4354166666666,233.77070312499995,228.30572916666665
11.200000000000001,7.525813400447398,64.12837799402244,110.1448504029491,9.238404729909481,222.6401608910891,234.09008225041256,228.46391811056105
11.3,7.596388341089572,64.23951150752292,112.07640021465225,8.956530143177952,222.8208333333333,234.52486979166665,228.6932291666666
11.4,7.625286326348209,64.34582452547664,113.88254439415026,8.682173262577109,222.99648437500002,234.75195312500009,228.81406250000006
11.5,7.477395713276825,64.4202945097366,115.0380269596904,8.382821872899472,223.1804674608086,235.08952660891086,229.00848287953795
11.600000000000001,7.075071681978941,64.45554363207924,115.50312791043443,8.061266276126213,223.37527604166667,235.42532291666666,229.21166666666667
11.700000000000001,6.46546479524578,64.47616595296314,115.69265464292937,7.766469692454123,223.57528877887788,235.79976536716174,229.46096715140266
11.8,5.805034631453839,64.51896533880168,116.08600714106983,7.538583262601212,223.78046874999998,236.24505208333326,229.7615885416666
11.9,5.272518987922555,64.60400100465688,116.86551528515565,7.359284919761882,224.0022809011673,236.43739817740877,229.88433059524095
12.0,4.97554672230558,64.72388576369626,117.88995504643566,7.174349201233476,224.24533854166665,236.78487499999994,230.09939062499998
12.100000000000001,4.911227029270646,64.85411514971467,118.95773559500196,6.965234481538697,224.5036098105445,237.18972636052672,230.3351548880072
12.200000000000001,4.989765114907613,64.96919832881582,120.01948413998501,6.784204638298383,224.7734889286263,237.49052852550878,230.50424166727336
12.3,5.0906163967688896,65.0536371109604,121.1386859549824,6.692379973646016,225.0588936030322,237.8603509179043,230.69168878919143
12.4,5.1152723023563995,65.1063483762115,122.36159078125628,6.670640686941469,225.35953645833334,238.38963411458334,230.89957812499998
12.5,5.011673908766107,65.13866703868034,123.69302716846813,6.6346875229268365,225.68020230405705,238.6727872999742,230.99986536098777
12.600000000000001,4.767325285258322,65.16615499054387,125.1310050593075,6.546800442563279,226.0102387582508,239.23412102929043,231.16268306518154
12.700000000000001,4.394864331839339,65.19836914569835,126.65337773621208,6.441612372962017,226.34668619791668,239.79119270833334,231.27709374999998
12.8,3.933421291456655,65.23307337162784,128.19995856418316,6.356059447159084,226.6783358331927,239.98681016155595,231.3099200922933
12.9,3.458657390788956,65.25902827751968,129.7236981056242,6.2995100416488485,227.0157805280528,240.41784121029295,231.35934271864684
13.0,3.073365073587965,65.26641596616003,131.24051923997,6.266388577724807,227.35108103197672,240.88669048772604,231.39248021640825
13.100000000000001,2.863556208157714,65.25750987029272,132.7460073020084,6.24768629476072,227.67975456793502,241.35609765555049,231.40602372192157
13.200000000000001,2.8413251706067046,65.2476614839812,134.04392304468175,6.233343619451481,227.99296875000002,241.9608072916667,231.39557291666665
13.3,2.9224983504894646,65.25465965537832,134.73572506683755,6.215431236223605,228.29626206110197,242.27957892143385,231.3777354732001
13.4,2.9719178982363563,65.28632282939334,134.50638536914946,6.196680446549653,228.58932936262383,242.91435643564364,231.31005311468644
13.5,2.895267172581758,65.33711001128343,133.47654841126075,6.189633417016341,228.86445312500004,243.25104166666665,231.26328125
13.600000000000001,2.7081390127086515,65.39423831584045,132.2424926454149,6.211403239863475,229.12114383012818,243.53317307692308,231.2203325320513
13.700000000000001,2.5194559854455183,65.44591434600338,131.50620286656715,6.261168271304441,229.3494791666667,243.9552083333334,231.13515625
13.8,2.436640699159894,65.48574653474685,131.58868126819522,6.3007097234706855,229.566796875,244.22604166666665,231.07265625
13.9,2.4775682855819268,65.51271365851419,132.2267189421394,6.298735368349827,229.76405347566006,244.56359323432346,230.98579311056105
14.0,2.5713906436541687,65.52886083367599,132.81590721535463,6.265236048998724,229.941796875,244.8552083333333,230.90221354166667
14.100000000000001,2.6377501425743035,65.53678031877645,132.90587252286778,6.21546305709089,230.09610335812468,245.0055220203624,230.85209425497385
14.200000000000001,2.6583819945613016,65.53818115847903,132.55937115457027,6.157300689754659,230.23515625000002,245.2166666666667,230.769921875
14.3,2.6779451748223035,65.5342286632121,132.28840818343113,6.118900621139247,230.35885416666667,245.3436875,230.72058854166667
