time,twist,height,volume,pressure,epi_mm,trans_mm,endo_mm
0.0,-11.129163782722683,78.22807218980381,116.4077294235049,-0.46591981974641433,246.97447916666667,243.75312500000004,237.13776041666665
0.1,-11.137501905646133,78.2411600535099,116.50541682336952,-0.46623707030396466,247.18337667594884,243.7677772277228,237.2349346895627
0.2,-11.19105314166057,78.31573899935212,116.9804318888169,-0.4529171169722817,247.44248437499996,243.83362499999998,237.34904687500003
0.30000000000000004,-11.230690037595524,78.29995629296216,116.35103057689376,-0.34720621790862255,247.66976893939395,243.90844714187332,237.40755169593663
0.4,-11.20097457794924,78.06985899861114,114.426000716204,-0.20923917658361377,247.84336126768346,243.98618462643677,237.41381931089745
0.5,-11.031055765685116,77.55868934624334,111.71361416131602,-0.1153338625667784,247.94354811649964,244.04843022108034,237.39332832419385
0.6000000000000001,-10.660817682439777,76.78722503721387,109.20734132654127,-0.07578409329018689,247.9857044485699,244.1308642739274,237.32800644595707
0.7000000000000001,-10.074355266316127,75.84532604739782,107.79261714337206,-0.07321418869663471,247.99140625000004,244.22642676767677,237.24434056712963
0.8,-9.316929457008138,74.84039300288453,107.6763730943321,-0.09502684233053228,247.99713099747476,244.30991130050506,237.1902727272727
0.9,-8.478041136197504,73.84901981838449,108.27057426022812,-0.09558625431002025,248.06239451500298,244.43978802733216,237.21640190508023
1.0,-7.652669303717933,72.902230975377,108.60623164876444,0.005936604767518808,248.1563986867437,244.58140814081403,237.27699437912543
1.1,-6.907734891229876,72.00562786961795,107.93918588952265,0.31267056262705234,248.1484374216792,244.58511121553886,237.26754859805763
1.2000000000000002,-6.266111885144219,71.16673741564146,106.12433602295408,0.942404695402541,248.02476467293903,244.5067826500896,237.21041488155242
1.3,-5.705158678208029,70.40282876970569,103.6068589965961,1.955832535119863,247.6054443260732,244.00098768939392,236.86654482323232
1.4000000000000001,-5.168905677570282,69.73111609161269,101.13433006342648,3.313425110185248,247.0078431976011,243.2417531565657,236.36510258838385
1.5,-4.597882563646594,69.16028133081798,99.36539068347543,4.954797887809438,246.27640309148103,242.39123023669558,235.7967287928012
1.6,-3.968808948625861,68.68962831308032,98.54622825774557,6.902533066689081,245.46918416841677,241.411379852829,235.09051134957244
1.7000000000000002,-3.315856754329513,68.30898451536335,98.3999614533089,9.246492021661187,244.55493554535735,240.84095097610717,234.66165964330807
1.8,-2.7078932930658275,67.99808141666766,98.31629468038722,12.006401033002641,243.5422990736573,240.11849114989613,234.06323627675258
1.9000000000000001,-2.1930945223421374,67.73040900853563,97.75216115712408,15.05865548552527,242.46869830487654,239.61512446108165,233.62997476453188
2.0,-1.7592923448515976,67.48161954870532,96.52914307268536,18.173576638947846,241.44526024011302,239.08158501059324,233.0826973870057
2.1,-1.3470269105374009,67.23729188483063,94.797527436927,21.140323013877055,240.4393389945652,238.70610507246374,232.64224932065213
2.2,-0.8977528576357866,66.99530437133386,92.80835587717547,23.873070614135127,239.43075228851012,238.10991765309345,231.8117634548611
2.3000000000000003,-0.38882586612538894,66.76160040276001,90.76954065169427,26.458942407921835,238.47932930107257,237.84689135512667,231.4513279911865
2.4000000000000004,0.16848672014296473,66.54458235593357,88.84442266830443,29.081441580918177,237.60744857804227,237.60643890542323,231.21108812830684
2.5,0.7557336343155995,66.35652097463041,87.17439070758451,31.84796595521837,236.89476171875003,237.07163411458336,230.85427473958336
2.6,1.3742117766605844,66.21882401944852,85.8451033873319,34.72557372976974,236.29292791466642,236.64170536116106,230.63808133469593
2.7,2.0492889432541386,66.15308439380931,84.82099116215308,37.667477363489645,235.74088436104637,236.0599625618812,230.42443787917395
2.8000000000000003,2.803746709128225,66.15169207965484,83.91837017468916,40.79066991108241,235.17142410714283,235.5821736819728,230.26385512329932
2.9000000000000004,3.6215054926558303,66.15563296696659,82.88287175113618,44.32500109212315,234.57822190656563,234.9779439709596,230.07491177398992
3.0,4.438369486059772,66.07447890795152,81.57126998549039,48.42638042904657,233.97869791666668,234.2751822916667,229.891453125
3.1,5.173768058086803,65.84344380599204,80.09467567750609,53.11680778652693,233.37056849747475,233.83295375631315,229.79396322601008
3.2,5.782190284969179,65.46891189227266,78.73548147043041,58.36339393603708,232.75030575980387,233.1480229779411,229.6805672998366
3.3000000000000003,6.285882172190607,65.02029028026577,77.66800139903035,64.16676766463915,232.1143244047618,232.26718229166656,229.5586795014881
3.4000000000000004,6.760065285390167,64.57713297106963,76.76237816752895,70.56861803984181,231.46079328245324,231.26284655848394,229.44676875500053
3.5,7.283688744440258,64.1797315561815,75.67957032705155,77.5281753190826,230.78790625,229.95992708333333,229.3423958333333
3.6,7.8994643269783085,63.81966200004505,74.17175562674142,84.77511919580617,230.0941321475897,228.89156775052493,229.28605657440744
3.7,8.599828363788538,63.465244452327454,72.33217047461041,91.84873612745822,229.37112383660238,226.77252892789258,229.28549039278928
3.8000000000000003,9.327844793667223,63.09242204632718,70.58309129425214,98.27133513115403,228.6134099317528,225.64568462643675,229.2984249281609
3.9000000000000004,9.997454730004536,62.69972597854553,69.38971846424515,103.6261409930496,227.84283341068468,224.51590779702948,229.31789315181518
4.0,10.537944309290395,62.30545648957727,68.92597936939082,107.60230348298565,227.06754490214647,223.07094381313132,229.31852967171713
4.1000000000000005,10.935766709089998,61.93466016287655,68.9550069876314,110.13199807996456,226.2970638923267,221.71385210396033,229.28788304455443
4.2,11.241110550890113,61.603501075643464,68.98908773097826,111.52031944090515,225.51671890782825,220.40289283459586,229.23321906565658
4.3,11.537815100844805,61.309091900932394,68.60218212176125,112.37801210876823,224.74174675123763,219.20012041047858,229.16175804455443
4.4,11.898401520118673,61.033498839348425,67.69486031660938,113.30707485461208,223.9577604955808,218.1137630997475,229.06678724747474
4.5,12.346078977329258,60.76191422343166,66.53753584328798,114.57674709616835,223.1620784734724,217.09081076076367,228.92530393664367
4.6000000000000005,12.838314943431483,60.49850003266909,65.55134725578485,116.07239474920111,222.36200911458332,216.40877083333325,228.79826041666664
4.7,13.281314060317662,60.26003306006648,64.9804026317355,117.52464439275177,221.55676927849035,215.72124404393557,228.6459217859286
4.800000000000001,13.574217883687943,60.05077951037918,64.71893004180458,118.79233235411012,220.75124628712868,214.93305130981847,228.48244224422444
4.9,13.661582411501412,59.847939733465644,64.44783517804204,119.95295086462217,219.94781826073233,214.03241469381314,228.3122013888889
5.0,13.564337497079805,59.61819831076209,63.95546099637445,121.12675912364931,219.15451574102724,213.0792796514027,228.13504775165018
5.1000000000000005,13.373661978367705,59.348658079380435,63.329193484198676,122.27789045317125,218.35030176377003,211.83620077945272,227.90097400755698
5.2,13.208236481568491,59.057838913438694,62.83673655209685,123.27222168764094,217.54203568481844,211.05354429661716,227.75073365305283
5.300000000000001,13.150782389578383,58.77717618685879,62.63866276232924,124.05991339102157,216.70682891414148,210.09837878787883,227.5844228219697
5.4,13.201817051234253,58.52588844400495,62.62340109221916,124.71319912959852,215.8517605350379,208.72673212594705,227.33676467803033
5.5,13.288515665339533,58.30261261790374,62.5135296784037,125.33802311520502,214.99890821170348,207.78231134438047,227.13393090050315
5.6000000000000005,13.324821528881436,58.09493831234682,62.134676847895356,125.99469751032628,214.1571481729054,207.24012336601297,226.95436344139924
5.7,13.273421576902471,57.8948564428594,61.586121344559444,126.64161752793689,213.33793450204394,206.80643064931493,226.64867522846035
5.800000000000001,13.16044667775398,57.70816099385579,61.155105547058135,127.13609719014744,212.5288534580021,206.5421688192257,226.16274803339715
5.9,13.041337617389424,57.548528980218755,61.076641908279804,127.39037444864573,211.74142242736892,206.43736229187823,225.85367041127188
6.0,12.961098393879858,57.41832675210682,61.36164533784085,127.52629358964718,210.95145596590905,206.2171335753367,225.4464225589226
6.1000000000000005,12.942450542681142,57.296494763420135,61.81468832642978,127.80029229143388,210.18527183633537,206.05686456480467,225.19874187939624
6.2,12.989204329114798,57.15284153952722,62.18457178943472,128.32830349922116,209.437349075321,205.8644176081024,224.93104963500275
6.300000000000001,13.079274726582625,56.97922074372198,62.289697317294305,128.95532081530092,208.67149121529803,205.6643257259243,224.6568502289874
6.4,13.154366570523285,56.80432381551788,62.03914758983237,129.44261180762183,207.87968428617057,205.51970888394283,224.45923056232036
6.5,13.135355768536863,56.67161505649139,61.421287219512486,129.6945676064881,207.00540178571427,205.3407325148809,224.1621480654762
6.6000000000000005,12.970928429332261,56.59742961274602,60.52728228145571,129.75708668253296,206.08676330992458,205.14350357223216,223.8052500078132
6.7,12.686086206433643,56.54885378259223,59.55532778439717,129.6995466977915,205.15006770833327,204.96662469059405,223.5521506291254
6.800000000000001,12.379830016598433,56.46510679980347,58.727914660946546,129.588724367924,204.22815625000007,204.45573958333333,223.2421510416667
6.9,12.156978760681554,56.30659065690556,58.16733975173671,129.52286479967117,203.2863450930483,204.0365856032458,223.0682968870633
7.0,12.04943657324276,56.089955958044925,57.842536701143864,129.5673024663233,202.32371793241273,203.42699987887605,222.90943695494187
7.1000000000000005,12.004899056976699,55.87971481453655,57.64073595805707,129.67287280185062,201.4589367225931,202.6763257232119,222.69352066987358
7.2,11.950220790427181,55.74492460844103,57.49154978895837,129.75383602582968,200.77935959402157,202.40231971457106,222.59222749334174
7.300000000000001,11.856426483922183,55.71617769091171,57.41008077147881,129.78388294016892,200.34838612689396,202.20596196338386,222.43759753787882
7.4,11.741641984557651,55.77133323160911,57.415025198839935,129.77870474389485,200.15192476278878,202.08571550123762,222.22865088696366
7.5,11.625044219994445,55.852729134619345,57.43047514208852,129.75005609846224,200.06874973695287,202.02293166035352,221.91928440656565
7.6000000000000005,11.494133260834323,55.900697562332674,57.31595688805183,129.68763696882,200.00801026108152,201.99592984626085,221.77217815279514
7.7,11.322669450830524,55.8847528125817,57.022396362542075,129.56696189784063,199.9628160054492,201.97863361410154,221.56913699494945
7.800000000000001,11.114121117599154,55.81790303409061,56.69338255123262,129.38443943492226,199.95773008143203,201.9748697916667,221.40250849745303
7.9,10.911140025767631,55.74885234702458,56.56413593470182,129.1806074201199,199.97980303030303,201.9861608270202,221.24314457070707
8.0,10.7463508617306,55.73887113019256,56.74212253946933,129.00668083180327,199.99573824257428,201.9968036819307,221.08051382013198
8.1,10.580962662010405,55.83655126235854,57.0901633964797,128.88090489704814,199.87236268939395,201.96356897095959,220.93629387626262
8.200000000000001,10.296361545571525,56.06190451274972,57.33848881075425,128.76917214707225,199.65863852010202,201.94018538572607,220.81551123862388
8.3,9.753337221882695,56.405792383760364,57.33874310895013,128.55351237563852,199.64405723452194,201.93448053269765,220.74422314470132
8.4,8.879420960871874,56.84213324862986,57.21732374254889,128.03705533474988,199.9625173687508,201.99250172083183,220.67708190662813
8.5,7.716901232645717,57.34149956851661,57.261721795834596,127.02721094461401,200.98832173295474,202.18749605429298,220.50527446338378
8.6,6.380649561192368,57.87716027196668,57.644906912515744,125.38629381918184,202.4884515779705,202.35863278671619,220.37651449051154
8.700000000000001,4.960502648553383,58.428435967998546,58.25893364744943,122.97794149335272,204.19237997159095,202.67852193813133,220.27008854166664
8.8,3.4752909136648142,58.98961547313771,58.809768687567576,119.68457107191826,205.77500175798832,203.21706026071357,220.25840814550205
8.9,1.9276637215355905,59.57719168531015,59.07214806749595,115.5492264069274,207.12749231641934,204.35304898927413,220.42637680486803
9.0,0.3870509470858748,60.21966091985374,59.069858448437024,110.85194117049143,208.38285416666668,206.19072656249986,220.8581145833333
9.1,-1.0030730037871045,60.9325233262604,59.040206766971075,105.98633602843559,209.65023666403263,206.96216015778054,221.0569198481683
9.200000000000001,-2.116627152121951,61.70402194370743,59.24225592762209,101.22163962917739,211.00278031318751,207.42860062568755,221.35872928699118
9.3,-2.9527427086407747,62.509938123266465,59.781020548762946,96.54031931523866,212.59344982137193,207.73555189145364,221.75379067129094
9.4,-3.64926142351041,63.34324286894766,60.58075126338889,91.69703628280324,214.28730381944465,207.73544444444443,222.0674270833334
9.5,-4.378360610521455,64.22590968390904,61.49653816319966,86.46879197879055,216.0296434659092,207.70475862794612,222.6120245686027
9.600000000000001,-5.2186428925767965,65.18779032365826,62.4145936394942,80.92228028619606,217.69168823444875,207.8918282015702,223.03673804177302
9.700000000000001,-6.115019010310012,66.23021637035684,63.23440709130458,75.44044420687602,219.25897672032826,208.62879636205807,223.53949605429293
9.8,-6.93927308012974,67.3066979425514,63.83245865162157,70.42819161395818,220.75958820647693,209.94228489841177,224.22444270833333
9.9,-7.572409060071007,68.33901775820846,64.15289811548308,66.00506956286824,222.17314729980595,210.5112756615756,224.51507649875327
10.0,-7.943641378331733,69.2584581834879,64.34240264595839,61.96038353427014,223.5136398303772,211.12362095352918,224.87904249432282
10.100000000000001,-8.035888599398895,70.04179546705167,64.7102470177419,57.954148412865585,224.6895794665405,211.78777047821973,225.424398989899
10.200000000000001,-7.896238180159284,70.71518229481985,65.50560901754095,53.788417230925255,225.74529473494226,212.36391883250826,225.97984003712872
10.3,-7.649007276360944,71.32341020209317,66.7482904860653,49.480411869458315,226.74140336924327,212.9165003801162,226.56505694827305
10.4,-7.47196513185208,71.88874531336585,68.272640544136,45.08619345982449,227.74197970812716,213.5025277032912,227.1717566407683
10.5,-7.521086941659925,72.39198202954397,69.90144977386684,40.52264959628622,228.79052731679425,214.18365637891918,227.9288551917692
10.600000000000001,-7.843249742271375,72.7896299111448,71.55808625019964,35.658153238131305,229.84361122948235,214.71531376262632,228.54281443339653
10.700000000000001,-8.3404254647698,73.04940330642158,73.23239315328335,30.544571195809677,230.8563183529291,215.35466050433172,229.17888325082512
10.8,-8.82346031673874,73.17204977690274,74.89930120085246,25.445815006313627,231.77455523989906,216.57736797664145,229.91589464962126
10.9,-9.127042010057307,73.1868364768526,76.51483592092869,20.638020898521503,232.55829574741756,217.8575842412871,230.43434239164847
11.0,-9.200352921417684,73.13644572979793,78.08601197212725,16.287313188536846,233.24186632736235,218.5689852776301,230.65792481408994
11.100000000000001,-9.109400117302098,73.06835001787074,79.71670737566734,12.516114581756476,233.8603041602653,219.55931534333413,230.9230471808496
11.200000000000001,-8.967021817165996,73.02739140258404,81.53913889503603,9.438274523410515,234.46382870864693,221.2161705832444,231.38092531385587
11.3,-8.855468226884597,73.03660961818808,83.55636361067617,7.064969944705399,235.06034621789271,222.89913200298733,231.85229106693114
11.4,-8.790335220822856,73.07613806438151,85.56500142222824,5.247567241955994,235.6315400450028,223.55573919906917,232.03348738062388
11.5,-8.730505264982996,73.08996608077692,87.28174133048806,3.793456042371768,236.17880109311906,224.28319788754288,232.22989512950457
11.600000000000001,-8.617660123470538,73.02903577422995,88.56934580698858,2.6146413880322963,236.69456018414348,225.81322592259232,232.6411982643577
11.700000000000001,-8.430318774309484,72.89467872397472,89.53543887893476,1.7047656726759879,237.17671052204025,226.7508435271836,232.88603250334225
11.8,-8.223465435108592,72.73858929592001,90.41696085517613,1.0397588576914132,237.63480166750048,227.81866804034112,233.15606943091245
11.9,-8.110510031002102,72.61929434738757,91.39729010163576,0.5605269634537945,238.04805567662993,229.03303879964346,233.44081494859847
12.0,-8.180527585587734,72.55660894834965,92.55138837936148,0.22466452857254468,238.41680386321195,229.64412844304397,233.5659805380486
12.100000000000001,-8.41339622440047,72.52161534248877,93.92211593063466,0.031285567657882665,238.71600718665619,230.55097244099423,233.71023227322735
12.200000000000001,-8.676847449632989,72.46513990571835,95.52814614860358,-0.04427527209836359,238.95847870255776,231.80155646658423,233.8507708333333
12.3,-8.82289450337619,72.35835646864187,97.21125338937806,-0.07789780443755916,239.16125,232.67097916666663,233.92945833333332
12.4,-8.800959449071774,72.21435457155552,98.54404436642517,-0.11667844188582067,239.34898586309524,233.4059650297618,233.96958035714283
12.5,-8.682515718876815,72.07747966828065,99.03470874557308,-0.14987404063277268,239.5087455160044,234.06257522764903,233.98833333333334
12.600000000000001,-8.586050147007482,71.99119201601997,98.51153998072316,-0.15438283727897625,239.64789434523811,234.7173757440477,233.97444047619047
12.700000000000001,-8.584129102995794,71.9685998611961,97.3108856926949,-0.13249723364200636,239.76759011994952,235.37222853120022,233.93869029937534
12.8,-8.665396076734439,71.98640784504863,96.08753117288093,-0.1234414442267718,239.8836024659864,235.71459651360544,233.91337797619045
12.9,-8.761024803208072,72.0052648548334,95.44932128413944,-0.16500549665264216,240.00058984375005,236.16501893939395,233.8571275252525
13.0,-8.802544532350934,71.99936905154864,95.69648712024639,-0.2522493416053364,240.11305564150166,236.83295369224427,233.72598298267326
13.100000000000001,-8.768078719665985,71.97227910103983,96.75156793916324,-0.32532477834297147,240.21677227349275,237.09800408079903,233.67031053254632
13.200000000000001,-8.687702116922841,71.94883481802371,98.2252062945387,-0.314814128584452,240.31562924382717,237.42421967230902,233.60634610701197
13.3,-8.611668672846433,71.95232075782567,99.5642847237962,-0.22639415521224748,240.4079098800505,237.74461852904042,233.54520367739897
13.4,-8.573669072742325,71.9855983621199,100.25245620909776,-0.13270539003025725,240.49696520433295,238.06252361564282,233.48591027071453
13.5,-8.575157335645379,72.02991843113831,100.04148919970453,-0.10405348557666556,240.58198517985988,238.36414554010548,233.43261267330777
13.600000000000001,-8.591551734336173,72.06173073717717,99.16510507974635,-0.16828258302631427,240.6687638519504,238.7132682845745,233.4028910682624
13.700000000000001,-8.590651867859377,72.07472769874263,98.34619835174617,-0.2911053248246877,240.76156956683568,238.9263834600837,233.39274479166667
13.8,-8.555631100418232,72.08886612983113,98.3982247714393,-0.37458366868839055,240.85680809294874,239.14235462454212,233.4020552693834
13.9,-8.503248349425387,72.13610243488053,99.62154280728844,-0.33497281204765583,240.9535808080808,239.32954671717172,233.41451730850167
14.0,-8.483878314901657,72.2323376390893,101.5344245912408,-0.19202034789467673,241.04590874904798,239.51900870898388,233.42839876475628
14.100000000000001,-8.555316027784247,72.36023871433126,103.21453692479759,-0.057152204820875595,241.13416832933294,239.71788842790534,233.43653657709524
